,Time,PPG
0,0.0,121.19332793643028
1,0.02,558.6722584037256
2,0.04,1142.188891770183
3,0.06,1464.8799690799674
4,0.08,1505.1343013241153
5,0.1,1552.3179187158503
6,0.12,1770.5130906196869
7,0.14,2114.2198985429336
8,0.16,2467.800147812447
9,0.18,2748.29682500809
10,0.2,2905.3625598456697
11,0.22,2913.289446909698
12,0.24,2803.362807781925
13,0.26,2650.127972827063
14,0.28,2498.0330794091424
15,0.3,2343.547071731149
16,0.32,2182.1015303387962
17,0.34,2033.2793040638676
18,0.36,1922.1333199514725
19,0.38,1853.9184432264929
20,0.4,1814.5180246095345
21,0.42,1823.8469686769718
22,0.44,1961.4300575244797
23,0.46,2233.827105692193
24,0.48,2493.082099043849
25,0.5,2596.6759079093663
26,0.52,2548.2707678690867
27,0.54,2448.073523712745
28,0.56,2391.555936513827
29,0.58,2430.2940840800284
30,0.6,2572.6355602991694
31,0.62,2780.022071224724
32,0.64,2969.474882519829
33,0.66,3043.6157013606794
34,0.68,2948.61633223434
35,0.7000000000000001,2713.946523045733
36,0.72,2417.2915554502697
37,0.74,2121.731842589265
38,0.76,1863.2155659878556
39,0.78,1669.1300683504514
40,0.8,1562.0985363909463
41,0.8200000000000001,1548.9036754173783
42,0.84,1613.7351942045257
43,0.86,1721.6408519995377
44,0.88,1830.231467852266
45,0.9,1906.5240419433267
46,0.92,1937.1437023769524
47,0.9400000000000001,1924.0232474293587
48,0.96,1865.3627436514998
49,0.98,1750.3769125511456
50,1.0,1602.0850284763073
51,1.02,1509.8546629294688
52,1.04,1575.9467752331686
53,1.06,1828.3130552030918
54,1.08,2198.8745667040293
55,1.1,2573.5259872457577
56,1.12,2843.382333305721
57,1.1400000000000001,2927.4175150712686
58,1.16,2804.2724954452024
59,1.18,2538.4367289226757
60,1.2,2237.993564803556
61,1.22,1980.0864693993922
62,1.24,1791.3298021119474
63,1.26,1676.6937078554147
64,1.28,1635.613118182671
65,1.3,1656.8180529201388
66,1.32,1716.1914331641156
67,1.34,1776.353711491391
68,1.36,1793.7357296294288
69,1.3800000000000001,1745.673817414279
70,1.4000000000000001,1647.7730537232997
71,1.42,1533.292163821971
72,1.44,1422.8334387005348
73,1.46,1328.0473609465735
74,1.48,1286.1849660420285
75,1.5,1365.9355008374698
76,1.52,1612.880205167186
77,1.54,1992.757656446743
78,1.56,2397.322089866415
79,1.58,2700.1141712142444
80,1.6,2808.6072809923603
81,1.62,2700.2801040256613
82,1.6400000000000001,2434.6344815423
83,1.6600000000000001,2111.790938096937
84,1.68,1813.8231207325491
85,1.7,1585.7825739059278
86,1.72,1447.3559492822446
87,1.74,1402.2256604851987
88,1.76,1436.108683255879
89,1.78,1514.40169156239
90,1.8,1593.3099436034001
91,1.82,1643.5103394778353
92,1.84,1659.8708851489862
93,1.86,1645.9817070438007
94,1.8800000000000001,1604.3304395929988
95,1.9000000000000001,1552.9751873816658
96,1.92,1529.4755320916402
97,1.94,1552.7652543947809
98,1.96,1614.4157426570027
99,1.98,1725.4655244218038
100,2.0,1920.5549625037559
101,2.02,2195.927073180011
102,2.04,2479.9507118188053
103,2.06,2680.226019509898
104,2.08,2734.9904817331712
105,2.1,2626.880934296971
106,2.12,2387.0208463515423
107,2.14,2084.8129951832616
108,2.16,1794.987426674669
109,2.18,1570.1095097769921
110,2.2,1434.4874489574647
111,2.22,1388.3269369115355
112,2.24,1411.5455249035908
113,2.2600000000000002,1470.5791819286765
114,2.2800000000000002,1530.001226757794
115,2.3000000000000003,1565.8349955048516
116,2.32,1574.3372044267592
117,2.34,1560.1847954058114
118,2.36,1521.8726352723806
119,2.38,1466.3986685364025
120,2.4,1430.9202265621889
121,2.42,1489.519755529155
122,2.44,1728.3081701022772
123,2.46,2189.7109363169325
124,2.48,2861.6340186469147
125,2.5,3613.3990503795626
126,2.52,4137.927599016474
127,2.54,4177.608502726788
128,2.56,3709.8442805407813
129,2.58,2905.677957635827
130,2.6,2052.681821472642
131,2.62,1369.5582276486537
132,2.64,902.8101180503793
133,2.66,634.2618949152467
134,2.68,562.3775078252639
135,2.7,682.8586737179902
136,2.72,955.7026520011987
137,2.74,1313.924796927658
138,2.7600000000000002,1687.898962141829
139,2.7800000000000002,2001.360695288925
140,2.8000000000000003,2169.8675423885475
141,2.82,2146.517144512765
142,2.84,1944.5251505618
143,2.86,1591.2785951139267
144,2.88,1145.5093941627804
145,2.9,772.7885564398055
146,2.92,662.5148499470998
147,2.94,847.0433533088485
148,2.96,1221.5747385277796
149,2.98,1693.3665058274582
150,3.0,2180.714462571743
151,3.02,2606.71189858261
152,3.04,2990.0019561785484
153,3.06,3312.9234537694956
154,3.08,3368.3426436675377
155,3.1,3020.165432828792
156,3.12,2436.416519628467
157,3.14,1877.67150587214
158,3.16,1441.9235833667533
159,3.18,1095.1434218056033
160,3.2,811.7168836125982
161,3.22,614.2668739080053
162,3.24,526.2181719669628
163,3.2600000000000002,548.0393017482033
164,3.2800000000000002,683.4148544232927
165,3.3000000000000003,942.7856330820758
166,3.3200000000000003,1297.6428172382434
167,3.34,1660.332407743746
168,3.36,1951.092191512502
169,3.38,2168.3114074054624
170,3.4,2333.363723892362
171,3.42,2403.6382220719534
172,3.44,2321.095138062695
173,3.46,2119.9834426313137
174,3.48,1927.4825587331093
175,3.5,1853.9771469186167
176,3.52,1906.446106311973
177,3.54,2009.5153188278512
178,3.56,2079.494289093827
179,3.58,2071.2900298774207
180,3.6,1976.8246096558782
181,3.62,1801.703435791057
182,3.64,1560.4750359583538
183,3.66,1285.2232387476483
184,3.68,1019.3890408131222
185,3.7,795.5337323825124
186,3.72,618.5967321749822
187,3.74,485.0675084458156
188,3.7600000000000002,412.17853768391416
189,3.7800000000000002,417.15362112088326
190,3.8000000000000003,478.32883175674147
191,3.8200000000000003,550.793479871355
192,3.84,616.4642949035829
193,3.86,695.5335903955399
194,3.88,806.9238151541086
195,3.9,937.34173598706
196,3.92,1060.4457482938315
197,3.94,1172.4321013060805
198,3.96,1304.5235829597107
199,3.98,1512.1094438447603
200,4.0,1840.1854469467744
201,4.0200000000000005,2289.573136419661
202,4.04,2820.844769279787
203,4.0600000000000005,3348.298577514869
204,4.08,3694.3981142001735
205,4.1,3666.8352322464593
206,4.12,3277.176785957516
207,4.14,2761.951607091754
208,4.16,2340.3226546518886
209,4.18,2066.585061097821
210,4.2,1904.3856137711225
211,4.22,1826.610952614781
212,4.24,1824.5705129630821
213,4.26,1878.1029683457039
214,4.28,1945.0957302028849
215,4.3,1979.891951473457
216,4.32,1962.319864217905
217,4.34,1904.4208010452708
218,4.36,1828.5423347084475
219,4.38,1744.719956369268
220,4.4,1650.5897221709715
221,4.42,1545.950643068863
222,4.44,1438.2591521795216
223,4.46,1343.59483524884
224,4.48,1299.3175167585546
225,4.5,1364.6738458948093
226,4.5200000000000005,1582.4611519604389
227,4.54,1925.2338185572862
228,4.5600000000000005,2285.381819231679
229,4.58,2533.8797796295607
230,4.6000000000000005,2592.3048150076306
231,4.62,2460.598145816983
232,4.64,2198.4345465699303
233,4.66,1884.1507850400715
234,4.68,1587.0582424817035
235,4.7,1365.6660854871177
236,4.72,1264.789019263847
237,4.74,1296.1211260706314
238,4.76,1420.9494044688938
239,4.78,1567.912433688718
240,4.8,1687.7775820164447
241,4.82,1778.7647622516154
242,4.84,1849.8945526298555
243,4.86,1901.6928117369998
244,4.88,1943.5642226394896
245,4.9,1977.479398696402
246,4.92,1975.710304954281
247,4.94,1910.4213286105346
248,4.96,1787.2040081303726
249,4.98,1634.245369481757
250,5.0,1488.030734178411
251,5.0200000000000005,1401.7946094506842
252,5.04,1428.9204553468644
253,5.0600000000000005,1571.744210233432
254,5.08,1758.5923555990773
255,5.1000000000000005,1884.5888827147814
256,5.12,1877.681834586277
257,5.14,1731.6521960379193
258,5.16,1492.324836026875
259,5.18,1224.3280266446625
260,5.2,984.8989026800143
261,5.22,813.5333500462499
262,5.24,734.498954501709
263,5.26,757.5307873098008
264,5.28,869.8903100725158
265,5.3,1035.0780421096572
266,5.32,1205.3321978971062
267,5.34,1339.1865663513454
268,5.36,1416.7056966733535
269,5.38,1443.6463720630825
270,5.4,1438.7661832288675
271,5.42,1414.2688823374292
272,5.44,1371.384912750566
273,5.46,1315.6009566341252
274,5.48,1265.4260005109159
275,5.5,1243.093603087445
276,5.5200000000000005,1270.5916758996677
277,5.54,1375.5300642028562
278,5.5600000000000005,1576.1695330579541
279,5.58,1847.9119981909041
280,5.6000000000000005,2116.514107286702
281,5.62,2292.586450046916
282,5.64,2320.4666661301417
283,5.66,2205.784625351327
284,5.68,2000.4844690407492
285,5.7,1766.484058514015
286,5.72,1554.487533278585
287,5.74,1397.8646686328827
288,5.76,1309.8010456160682
289,5.78,1282.647702243592
290,5.8,1293.7238546884187
291,5.82,1323.1658837255497
292,5.84,1357.8051211179722
293,5.86,1380.8837882273795
294,5.88,1382.336696074503
295,5.9,1373.5190917567295
296,5.92,1376.604028910341
297,5.94,1400.315459260265
298,5.96,1435.3598872835025
299,5.98,1471.5766146782387
300,6.0,1508.7923901446175
301,6.0200000000000005,1553.0344066872835
302,6.04,1611.0270444175037
303,6.0600000000000005,1691.883904222367
304,6.08,1797.7775967658579
305,6.1000000000000005,1905.6082000481554
306,6.12,1980.2569325551256
307,6.140000000000001,2003.829002086392
308,6.16,1974.8760302741373
309,6.18,1895.2752520033148
310,6.2,1772.6109444774447
311,6.22,1627.3350864673548
312,6.24,1493.0885058839513
313,6.26,1404.7381245889237
314,6.28,1376.171317325418
315,6.3,1391.5564191306198
316,6.32,1423.770191939548
317,6.34,1456.6343916029612
318,6.36,1483.673800973502
319,6.38,1493.835484213452
320,6.4,1473.0020885228896
321,6.42,1418.7999215318378
322,6.44,1345.438299377013
323,6.46,1269.405395108088
324,6.48,1193.0080697812757
325,6.5,1112.605758396439
326,6.5200000000000005,1044.9701966605592
327,6.54,1033.8648751084258
328,6.5600000000000005,1113.2348473993463
329,6.58,1257.1770532782546
330,6.6000000000000005,1387.0579855792184
331,6.62,1444.1144966032496
332,6.640000000000001,1436.874336880607
333,6.66,1407.960239415968
334,6.68,1374.4794884609541
335,6.7,1315.2121735746991
336,6.72,1209.8416853517936
337,6.74,1079.1174655939094
338,6.76,990.1792064282479
339,6.78,1017.7040340193824
340,6.8,1180.1113745286002
341,6.82,1416.863359688523
342,6.84,1633.8785443218335
343,6.86,1766.1755783916983
344,6.88,1808.4790361135806
345,6.9,1800.9411628600162
346,6.92,1787.9684646761602
347,6.94,1790.6720072085905
348,6.96,1812.4537549484387
349,6.98,1852.0260463123439
350,7.0,1899.3343141466755
351,7.0200000000000005,1933.938433883727
352,7.04,1947.0255578013937
353,7.0600000000000005,1955.2597198839221
354,7.08,1978.314866590254
355,7.1000000000000005,2010.6623241256614
356,7.12,2022.5370647963514
357,7.140000000000001,1987.1909069730991
358,7.16,1907.3388400390927
359,7.18,1811.5944291582014
360,7.2,1719.3413326478703
361,7.22,1620.5906696775023
362,7.24,1503.7012601710662
363,7.26,1382.1359754932453
364,7.28,1276.881687660267
365,7.3,1194.6058190895546
366,7.32,1131.7527259670414
367,7.34,1085.2304040303247
368,7.36,1057.9865087502171
369,7.38,1054.6001016459622
370,7.4,1073.932300533092
371,7.42,1105.4806972791573
372,7.44,1124.5103918646905
373,7.46,1105.8367314888585
374,7.48,1053.8285846813203
375,7.5,1004.3780276924452
376,7.5200000000000005,994.3535016374674
377,7.54,1037.2383507128889
378,7.5600000000000005,1123.3444548989567
379,7.58,1228.5897248050105
380,7.6000000000000005,1319.2856108491853
381,7.62,1364.9062722233086
382,7.640000000000001,1357.9257228743709
383,7.66,1308.2300190343055
384,7.68,1210.0740538763525
385,7.7,1037.5168137737794
386,7.72,780.9286115673834
387,7.74,472.95767658630376
388,7.76,188.25798670911163
389,7.78,9.900787905373662
390,7.8,-38.983879234607535
391,7.82,-8.001139423676204
392,7.84,72.97836441524368
393,7.86,249.23628802059437
394,7.88,554.155646814664
395,7.9,923.559801209324
396,7.92,1244.33419221377
397,7.94,1453.4308147432623
398,7.96,1567.6179606041044
399,7.98,1636.9001190994347
400,8.0,1699.3245944663026
401,8.02,1788.2365665633208
402,8.040000000000001,1944.1373852615761
403,8.06,2182.0305858788097
404,8.08,2452.411527501396
405,8.1,2656.048877633695
406,8.120000000000001,2718.2704929052898
407,8.14,2661.3479224492257
408,8.16,2594.594811375469
409,8.18,2614.5131030232487
410,8.2,2707.5186488175505
411,8.22,2758.800510683478
412,8.24,2661.4201824896963
413,8.26,2412.24640040053
414,8.28,2114.2278193758752
415,8.3,1897.2702349799997
416,8.32,1816.2122622769261
417,8.34,1819.6203331822553
418,8.36,1828.0933081969233
419,8.38,1816.4405984945029
420,8.4,1800.1247929409358
421,8.42,1786.146968640051
422,8.44,1779.5746863981533
423,8.46,1808.54381662338
424,8.48,1906.4702165902659
425,8.5,2085.5932506187055
426,8.52,2339.2851977919368
427,8.540000000000001,2643.196130913248
428,8.56,2927.537586745981
429,8.58,3069.7955622383624
430,8.6,2975.6847179797464
431,8.620000000000001,2671.3365339059737
432,8.64,2272.692795488026
433,8.66,1884.739076797618
434,8.68,1563.7038096249773
435,8.700000000000001,1344.6877460978
436,8.72,1263.4499685821654
437,8.74,1334.805869719508
438,8.76,1514.0986695658812
439,8.78,1706.9740137262438
440,8.8,1828.8782259650507
441,8.82,1845.1320663904949
442,8.84,1768.433776381551
443,8.86,1641.697044394556
444,8.88,1520.9107752723435
445,8.9,1454.2134729566455
446,8.92,1455.3859346083686
447,8.94,1502.618829325603
448,8.96,1582.8807718154849
449,8.98,1729.2674235517745
450,9.0,1995.2036101052402
451,9.02,2387.967548961471
452,9.040000000000001,2835.3211799229093
453,9.06,3206.1358164060334
454,9.08,3351.6471135221905
455,9.1,3188.155323169144
456,9.120000000000001,2783.99663222225
457,9.14,2312.550746042437
458,9.16,1911.7006341578585
459,9.18,1625.453415543402
460,9.200000000000001,1441.850820168581
461,9.22,1338.264289229003
462,9.24,1300.7778754941207
463,9.26,1318.406206448789
464,9.28,1371.668111916477
465,9.3,1439.1769046291188
466,9.32,1508.6974129333503
467,9.34,1572.2230870992137
468,9.36,1615.9842033067932
469,9.38,1627.9219214767893
470,9.4,1615.2018083031423
471,9.42,1610.017194216814
472,9.44,1666.8596782626669
473,9.46,1844.7020609052774
474,9.48,2157.990875806123
475,9.5,2535.6182814744234
476,9.52,2842.426208891189
477,9.540000000000001,2951.489900699745
478,9.56,2819.7872932484506
479,9.58,2511.961274100928
480,9.6,2143.5252255240976
481,9.620000000000001,1807.8304209123573
482,9.64,1553.092630018969
483,9.66,1395.8509994256033
484,9.68,1337.9610633447824
485,9.700000000000001,1369.4336779832956
486,9.72,1467.0140948774415
487,9.74,1600.4122841490048
488,9.76,1734.687858976347
489,9.78,1834.23956943461
490,9.8,1878.1488511099265
491,9.82,1869.458914196694
492,9.84,1826.4014042756905
493,9.86,1768.2716743410601
494,9.88,1713.567441722716
495,9.9,1694.8223610616046
496,9.92,1765.6805035970563
497,9.94,1965.7092281165683
498,9.96,2265.7192199204856
499,9.98,2561.7865222620435
500,10.0,2732.2966362792095
501,10.02,2707.757627298489
502,10.040000000000001,2501.481747528869
503,10.06,2184.705100343622
504,10.08,1837.2026496812612
505,10.1,1521.74076695241
506,10.120000000000001,1286.98590020426
507,10.14,1162.005123400041
508,10.16,1143.3322970213924
509,10.18,1200.626844331152
510,10.200000000000001,1293.8552217452425
511,10.22,1387.8777835656822
512,10.24,1458.9656524266795
513,10.26,1496.431705675109
514,10.28,1504.9945748975404
515,10.3,1499.6147319744707
516,10.32,1492.5435175215832
517,10.34,1492.8879696580861
518,10.36,1521.483110776682
519,10.38,1616.9606566260904
520,10.4,1820.8353514513847
521,10.42,2145.2013131297676
522,10.44,2541.109395696448
523,10.46,2893.394580105588
524,10.48,3055.81296044255
525,10.5,2941.7813641866587
526,10.52,2607.85552338581
527,10.540000000000001,2204.8286502976644
528,10.56,1849.5433388453046
529,10.58,1581.6409909919325
530,10.6,1405.8729457031325
531,10.620000000000001,1325.4809189591474
532,10.64,1339.903467390313
533,10.66,1430.6707857288372
534,10.68,1558.5725017703119
535,10.700000000000001,1677.4006074554186
536,10.72,1755.4861146645635
537,10.74,1786.5102211338542
538,10.76,1779.3552049013808
539,10.78,1745.9424589032753
540,10.8,1700.7765414596386
541,10.82,1667.0139375328356
542,10.84,1687.7504397361104
543,10.86,1826.7982913231594
544,10.88,2137.126842921299
545,10.9,2617.925965296929
546,10.92,3179.430374681983
547,10.94,3614.8080660376286
548,10.96,3686.114497920498
549,10.98,3346.6576417633096
550,11.0,2807.28046856741
551,11.02,2315.408325370069
552,11.040000000000001,1958.8607434441287
553,11.06,1709.2400226773038
554,11.08,1549.6057179716765
555,11.1,1502.9644138576891
556,11.120000000000001,1573.3633174273987
557,11.14,1709.8170683130866
558,11.16,1840.3116610585976
559,11.18,1920.5747767025491
560,11.200000000000001,1944.6723856747894
561,11.22,1929.5132342230897
562,11.24,1894.4257461235711
563,11.26,1847.732075780916
564,11.28,1793.8341949408932
565,11.3,1755.513226995966
566,11.32,1790.9393559876255
567,11.34,1973.2012613411912
568,11.36,2332.5668582743715
569,11.38,2819.641043063917
570,11.4,3299.8117180008157
571,11.42,3570.3138610944666
572,11.44,3474.889637979367
573,11.46,3061.8827294129956
574,11.48,2551.6351127367348
575,11.5,2124.4230032749956
576,11.52,1815.3760922345512
577,11.540000000000001,1597.8894299578099
578,11.56,1473.909814180506
579,11.58,1465.4457737317364
580,11.6,1563.5704965878558
581,11.620000000000001,1710.111385392047
582,11.64,1832.4496636337087
583,11.66,1891.6150555174745
584,11.68,1890.2993560041657
585,11.700000000000001,1848.4157002253778
586,11.72,1783.2928716361303
587,11.74,1705.5539888955925
588,11.76,1627.7551332388496
589,11.78,1581.8189643649484
590,11.8,1630.3460507062314
591,11.82,1840.0679962982047
592,11.84,2222.730350252323
593,11.86,2705.3133820695243
594,11.88,3141.3077031068715
595,11.9,3347.3439808129947
596,11.92,3214.3667015861124
597,11.94,2815.520528846292
598,11.96,2334.032354066016
599,11.98,1900.7517998682406
600,12.0,1557.458148087231
601,12.02,1321.4256128671996
602,12.040000000000001,1211.780721561261
603,12.06,1227.634386715755
604,12.08,1336.3516451469814
605,12.1,1483.0056774742218
606,12.120000000000001,1610.7841718868872
607,12.14,1686.0534112923322
608,12.16,1707.805841349112
609,12.18,1689.3051546425115
610,12.200000000000001,1638.118616341073
611,12.22,1558.973583103082
612,12.24,1465.3569871268587
613,12.26,1389.0056812156733
614,12.280000000000001,1388.3383830722084
615,12.3,1521.201950519228
616,12.32,1776.161923818433
617,12.34,2043.2341069871632
618,12.36,2170.5486837329972
619,12.38,2064.3590318930533
620,12.4,1763.6898730093828
621,12.42,1406.598854020979
622,12.44,1083.9500533656512
623,12.46,755.0137082248201
624,12.48,377.84525425054613
625,12.5,59.10861140952218
626,12.52,-24.119122744838094
627,12.540000000000001,308.65453562532736
628,12.56,1297.7795037349676
629,12.58,2842.124616395141
630,12.6,4123.169561038116
631,12.620000000000001,4482.23143882564
632,12.64,4236.110701190455
633,12.66,4014.71147790852
634,12.68,4010.9356050669994
635,12.700000000000001,4088.2834258444122
636,12.72,4122.060172332429
637,12.74,4108.720598946825
638,12.76,4091.128330947945
639,12.780000000000001,4088.501357709791
640,12.8,3983.397802906686
641,12.82,3298.8475568590507
642,12.84,1737.4255284773235
643,12.86,128.9842718466997
644,12.88,-472.652636142773
645,12.9,-229.42589522407582
646,12.92,74.1862943465818
647,12.94,112.98316948615671
648,12.96,21.011602022026217
649,12.98,-31.349606073660013
650,13.0,-20.598044449189555
651,13.02,2.515726961763608
652,13.040000000000001,8.375271741768318
653,13.06,2.613832225477201
654,13.08,-1.8821427886281454
655,13.1,-1.7174250172920285
656,13.120000000000001,-0.050352335321628305
657,13.14,0.5893627832401293
658,13.16,0.26475576285327607
659,13.18,14.089894642260575
660,13.200000000000001,276.0595248349957
661,13.22,1275.7931690182727
662,13.24,2925.2412000052345
663,13.26,4215.831142411296
664,13.280000000000001,4499.424190303682
665,13.3,4211.6308331060945
666,13.32,3998.5456170638126
667,13.34,4012.897210776572
668,13.36,4094.85614596605
669,13.38,4124.116739570845
670,13.4,4107.245877657395
671,13.42,4089.7796546100503
672,13.44,4088.4606444652018
673,13.46,4094.116502124895
674,13.48,4096.954333675278
675,13.5,4096.132620912583
676,13.52,4094.7797435681223
677,13.540000000000001,4094.505157814771
678,13.56,4094.871021775031
679,13.58,4095.121866738172
680,13.6,4095.096889517227
681,13.620000000000001,4094.9972656263126
682,13.64,4094.964415625758
683,13.66,4094.9860671926117
684,13.68,4095.0068125094613
685,13.700000000000001,4095.007805832314
686,13.72,4095.00084803593
687,13.74,4094.9975806471884
688,13.76,4094.99868520773
689,13.780000000000001,4095.000309242383
690,13.8,4095.00059686671
691,13.82,4095.0001400820506
692,13.84,4094.9998465198805
693,13.86,4094.999885922208
694,13.88,4095.0000067718356
695,13.9,4095.0000433850073
696,13.92,4095.0000157650484
697,13.94,4094.9999911822274
698,13.96,4094.9999907029883
699,13.98,4094.99999924014
700,14.0,4095.000002986304
701,14.02,4013.1206067932217
702,14.040000000000001,3630.949084083912
703,14.06,2906.3085372186565
704,14.08,2229.7858750859614
705,14.1,2015.5067543700998
706,14.120000000000001,2241.3050854511284
707,14.14,2584.74168883294
708,14.16,2788.7003215865943
709,14.18,2802.5666636732076
710,14.200000000000001,2703.184930711465
711,14.22,2599.7225714132596
712,14.24,2596.591363103854
713,14.26,2730.275387185151
714,14.280000000000001,2925.4135146347403
715,14.3,3078.939999538329
716,14.32,3146.4804972144007
717,14.34,3108.148916424234
718,14.36,2938.6784620232656
719,14.38,2636.9605580700622
720,14.4,2216.622460303256
721,14.42,1687.728502359592
722,14.44,1101.3171570862844
723,14.46,600.722683252752
724,14.48,381.13384284380516
725,14.5,543.5538112480016
726,14.52,995.3697020433025
727,14.540000000000001,1529.1326588387014
728,14.56,1969.0465329612591
729,14.58,2230.298301438839
730,14.6,2310.635206024312
731,14.620000000000001,2259.8570378550303
732,14.64,2129.489113392441
733,14.66,1958.883924566848
734,14.68,1800.1084727810942
735,14.700000000000001,1707.7503931848155
736,14.72,1695.4462226862001
737,14.74,1719.0502976340088
738,14.76,1711.1859682752531
739,14.780000000000001,1621.015561300167
740,14.8,1413.3012658923012
741,14.82,1062.5912444719145
742,14.84,598.709779771625
743,14.86,165.27032663864566
744,14.88,-56.41591858002368
745,14.9,5.428170158214705
746,14.92,316.16015443658125
747,14.94,776.8925689936596
748,14.96,1220.90857566098
749,14.98,1502.4624060598503
750,15.0,1599.3182048343017
751,15.02,1607.3839328800652
752,15.040000000000001,1654.9259489127628
753,15.06,1799.2086238552429
754,15.08,1998.7703733416804
755,15.1,2175.5993145088587
756,15.120000000000001,2260.839527550126
757,15.14,2203.3405398419
758,15.16,2008.572679401194
759,15.18,1787.0552065699435
760,15.200000000000001,1735.5380610408588
761,15.22,2035.089143831987
762,15.24,2728.7358676393064
763,15.26,3587.1355455591533
764,15.280000000000001,4170.314241304017
765,15.3,4187.582797551912
766,15.32,3651.788625214382
767,15.34,2805.5398138478317
768,15.36,2020.4193313584196
769,15.38,1523.9059889520931
770,15.4,1311.9244871598987
771,15.42,1326.2089209994633
772,15.44,1474.6395956226988
773,15.46,1600.1986256722316
774,15.48,1617.6730741416281
775,15.5,1586.0145016845888
776,15.52,1559.949652835651
777,15.540000000000001,1485.539596436421
778,15.56,1317.0079938156557
779,15.58,1113.373946636289
780,15.6,938.9683509914435
781,15.620000000000001,792.9121988136885
782,15.64,707.7392443991594
783,15.66,805.4425740916929
784,15.68,1187.7970108458965
785,15.700000000000001,1829.441657162861
786,15.72,2649.7242737672254
787,15.74,3518.506530780066
788,15.76,4130.277963388712
789,15.780000000000001,4277.156319716035
790,15.8,4152.813232355489
791,15.82,4008.4982753980644
792,15.84,3745.7885441393964
793,15.860000000000001,3144.9117408999196
794,15.88,2353.108136187323
795,15.9,1772.0060260935456
796,15.92,1563.201766788975
797,15.94,1603.1928244452315
798,15.96,1753.7585827186294
799,15.98,1969.8953468929758
800,16.0,2220.020964086568
801,16.02,2402.3184958115585
802,16.04,2391.9481329780015
803,16.06,2162.1526654778713
804,16.080000000000002,1824.5163835093604
805,16.1,1545.5494125306689
806,16.12,1437.3348897238955
807,16.14,1538.359251431955
808,16.16,1856.092095455781
809,16.18,2396.450212659207
810,16.2,3122.551181694166
811,16.22,3822.7368177376775
812,16.240000000000002,4200.1598004995585
813,16.26,4153.423176576924
814,16.28,3747.928465003702
815,16.3,3111.2339719975203
816,16.32,2457.683669416089
817,16.34,1909.8550543114186
818,16.36,1395.5686107287258
819,16.38,872.6416404417587
820,16.4,451.6155892538622
821,16.42,248.7508141075501
822,16.44,278.3150696612763
823,16.46,516.4702437247659
824,16.48,958.5554055878972
825,16.5,1570.7636447531622
826,16.52,2246.8070030922504
827,16.54,2850.0594515631037
828,16.56,3273.245997485203
829,16.580000000000002,3468.2505732391046
830,16.6,3446.9233237729363
831,16.62,3240.213197591135
832,16.64,2920.94396101618
833,16.66,2685.48043218459
834,16.68,2734.760923945501
835,16.7,3008.110839189876
836,16.72,3182.8968099342515
837,16.740000000000002,3007.80606093135
838,16.76,2525.319294489558
839,16.78,1907.9977395800338
840,16.8,1241.2188459081087
841,16.82,587.5263476309339
842,16.84,135.95482217821046
843,16.86,132.38864126970995
844,16.88,649.1525193391005
845,16.9,1448.8996615222902
846,16.92,2115.8679741092546
847,16.94,2383.788956543302
848,16.96,2294.660394681583
849,16.98,2037.1023298355753
850,17.0,1774.0955435308592
851,17.02,1613.0761532188328
852,17.04,1571.3364818827993
853,17.06,1560.6439324171013
854,17.080000000000002,1508.7213959728501
855,17.1,1479.9244429110643
856,17.12,1604.0197340739817
857,17.14,1904.6001404609367
858,17.16,2259.732362266702
859,17.18,2526.0346455859276
860,17.2,2642.3634847946796
861,17.22,2609.300820652099
862,17.240000000000002,2420.8585119573872
863,17.26,2060.6303663429717
864,17.28,1581.2173679753364
865,17.3,1127.5558925903179
866,17.32,809.2675707599142
867,17.34,606.6296013687432
868,17.36,475.2048069470021
869,17.38,466.202689651238
870,17.400000000000002,650.4636147415166
871,17.42,977.9741896630865
872,17.44,1300.248771044211
873,17.46,1510.644494064149
874,17.48,1604.2634838194836
875,17.5,1602.3862788291908
876,17.52,1490.2042071183837
877,17.54,1293.0741592310858
878,17.56,1150.8220388334544
879,17.580000000000002,1194.7067599865231
880,17.6,1394.1741300969998
881,17.62,1633.2534539509318
882,17.64,1858.6770356445368
883,17.66,2069.5499387790096
884,17.68,2238.137715904321
885,17.7,2294.967489491203
886,17.72,2167.146793969062
887,17.740000000000002,1834.6257241538897
888,17.76,1385.6762194082764
889,17.78,994.5326775321007
890,17.8,786.8636063460489
891,17.82,759.3983091654646
892,17.84,880.0584866326178
893,17.86,1172.6762909553277
894,17.88,1609.1772360922282
895,17.900000000000002,2018.528863737662
896,17.92,2230.0565237819023
897,17.94,2259.0538311088894
898,17.96,2245.680394850053
899,17.98,2248.0827425681573
900,18.0,2201.7622977160368
901,18.02,2064.8738161370247
902,18.04,1905.0270623160231
903,18.06,1843.1557924663095
904,18.080000000000002,2002.6363817745325
905,18.1,2523.4558009896687
906,18.12,3366.897386341654
907,18.14,4092.765698891677
908,18.16,4312.340927984699
909,18.18,4180.410225570688
910,18.2,4052.504869880244
911,18.22,3943.3216676295024
912,18.240000000000002,3529.8361398336747
913,18.26,2708.3737850858815
914,18.28,1874.6171231399683
915,18.3,1470.3137085630372
916,18.32,1579.107217689339
917,18.34,1996.6530915557553
918,18.36,2468.4648308890655
919,18.38,2834.49240562547
920,18.400000000000002,3017.5850382779267
921,18.42,2983.0346059437925
922,18.44,2780.153987720667
923,18.46,2561.2125343618645
924,18.48,2468.4041485104553
925,18.5,2518.4186054719594
926,18.52,2677.960396854439
927,18.54,3023.759637746093
928,18.56,3585.630445379252
929,18.580000000000002,4085.9296018892355
930,18.6,4244.301807756728
931,18.62,4156.332732035375
932,18.64,4066.919531222662
933,18.66,4061.326742612835
934,18.68,4090.8592726053953
935,18.7,4105.231895407196
936,18.72,4100.757058527237
937,18.740000000000002,4093.77441500992
938,18.76,4092.440317387295
939,18.78,4094.363489826595
940,18.8,4095.6432244602274
941,18.82,4095.4956639151005
942,18.84,4094.9789797879957
943,18.86,4094.8150134214548
944,18.88,4094.929988812153
945,18.900000000000002,4095.0364282683513
946,18.92,4095.040143451879
947,18.94,4095.0038660190357
948,18.96,4094.9873504456045
949,18.98,4094.993327493228
950,19.0,4095.001701432786
951,19.02,4095.003084375472
952,19.04,4095.00068714066
953,19.06,4094.999191481773
954,19.080000000000002,4094.9994171052995
955,19.1,4095.000043236195
956,19.12,4095.0002252977783
957,19.14,4095.000078999181
958,19.16,4094.999953007923
959,19.18,4094.999952237081
960,19.2,4094.9999966973937
961,19.22,4095.0000155938596
962,19.240000000000002,4095.0000077054856
963,19.26,4094.999997684704
964,19.28,4034.8959881277397
965,19.3,3694.9519853483316
966,19.32,2894.0653800729
967,19.34,1857.6076093686547
968,19.36,1029.9575544645534
969,19.38,584.6424266197765
970,19.400000000000002,404.6167662490836
971,19.42,348.4263304983372
972,19.44,362.715106028148
973,19.46,442.85906446417897
974,19.48,577.0829430526942
975,19.5,756.6493616735185
976,19.52,1008.9083399657804
977,19.54,1348.3344455609479
978,19.56,1717.3586660294307
979,19.580000000000002,2022.0216180585
980,19.6,2179.483397216415
981,19.62,2117.718664302695
982,19.64,1792.4843991158587
983,19.66,1251.3509234216767
984,19.68,668.6128780428585
985,19.7,271.40253400253835
986,19.72,197.83231525588337
987,19.740000000000002,419.1720615550407
988,19.76,797.4029225377302
989,19.78,1200.7219032454614
990,19.8,1552.496035293386
991,19.82,1806.2585504370238
992,19.84,1919.4947578780736
993,19.86,1870.8289790902522
994,19.88,1711.8143638353458
995,19.900000000000002,1565.7364880292578
996,19.92,1533.428579630266
997,19.94,1616.3122741633313
998,19.96,1742.5709683505754
999,19.98,1851.9816721106968
1000,20.0,1953.6513514031838
1001,20.02,2102.4735601156995
1002,20.04,2317.878404753167
1003,20.06,2527.548779639243
1004,20.080000000000002,2588.9615515952228
1005,20.1,2374.588566781079
1006,20.12,1849.6156120976968
1007,20.14,1098.0430252708825
1008,20.16,352.62880959033794
1009,20.18,-84.5180044549189
1010,20.2,-135.7046942552676
1011,20.22,-22.83362178307388
1012,20.240000000000002,39.29986057734124
1013,20.26,24.676598821713405
1014,20.28,18.74926437169687
1015,20.3,115.93787402447873
1016,20.32,318.458177141824
1017,20.34,495.6201407287933
1018,20.36,513.6008436751532
1019,20.38,379.2700067947341
1020,20.400000000000002,200.56225521746975
1021,20.42,62.358347602491534
1022,20.44,-7.245117476240019
1023,20.46,-17.61651952258278
1024,20.48,-3.6024696145457282
1025,20.5,25.930185511538497
1026,20.52,161.5188480432522
1027,20.54,558.6906244969022
1028,20.56,1253.0659885621378
1029,20.580000000000002,2050.108815969352
1030,20.6,2657.3489650465986
1031,20.62,2882.8170665902007
1032,20.64,2717.0734028422266
1033,20.66,2292.4811028401746
1034,20.68,1772.2243372487153
1035,20.7,1287.5466793632122
1036,20.72,958.061226817608
1037,20.740000000000002,870.7872710332144
1038,20.76,1005.5016057696972
1039,20.78,1242.4256429683132
1040,20.8,1464.166652962746
1041,20.82,1610.3690668475392
1042,20.84,1642.556557042519
1043,20.86,1530.763925589391
1044,20.88,1300.2814214099944
1045,20.900000000000002,1042.1963003805938
1046,20.92,850.7288367833323
1047,20.94,772.5348922818439
1048,20.96,817.2746746400194
1049,20.98,972.3072348496071
1050,21.0,1198.8357463532568
1051,21.02,1462.9007246926158
1052,21.04,1781.637396182622
1053,21.06,2201.4136211924892
1054,21.080000000000002,2708.325594618665
1055,21.1,3162.4439445527864
1056,21.12,3360.1285567280675
1057,21.14,3213.493719043755
1058,21.16,2830.1262589257476
1059,21.18,2369.6620800309383
1060,21.2,1897.1763960059727
1061,21.22,1429.0599242228323
1062,21.240000000000002,1037.6014366554111
1063,21.26,819.0183646631343
1064,21.28,781.6465153219469
1065,21.3,844.6169966679495
1066,21.32,940.3891489128398
1067,21.34,1043.8629565351828
1068,21.36,1119.6530756052807
1069,21.38,1127.9088717888699
1070,21.400000000000002,1074.411292225398
1071,21.42,998.8920424865578
1072,21.44,934.9749250340914
1073,21.46,910.6630086374449
1074,21.48,954.11857233253
1075,21.5,1075.5223355542387
1076,21.52,1257.6399820380452
1077,21.54,1479.3408490583338
1078,21.56,1751.1480248364578
1079,21.580000000000002,2112.2037038648687
1080,21.6,2573.759439460193
1081,21.62,3045.0060953326624
1082,21.64,3312.052033336426
1083,21.66,3178.1388886718173
1084,21.68,2669.6760355880633
1085,21.7,2012.5738431842326
1086,21.72,1421.434501058904
1087,21.740000000000002,999.8400427468372
1088,21.76,781.0201246086104
1089,21.78,773.5353381953423
1090,21.8,961.9248834650019
1091,21.82,1273.2524575607708
1092,21.84,1566.3998444571737
1093,21.86,1698.5612236683653
1094,21.88,1623.0127798098665
1095,21.900000000000002,1410.692640653489
1096,21.92,1165.7488926124556
1097,21.94,943.5346138891188
1098,21.96,762.6705644046677
1099,21.98,649.7249717407152
1100,22.0,637.4658347058029
1101,22.02,731.8914606295677
1102,22.04,900.0973126197159
1103,22.06,1113.3394311511508
1104,22.080000000000002,1414.2707741163504
1105,22.1,1889.0199563548108
1106,22.12,2540.993289372494
1107,22.14,3229.451941947418
1108,22.16,3725.815145992088
1109,22.18,3851.079685036917
1110,22.2,3599.9643713685327
1111,22.22,3114.524043935132
1112,22.240000000000002,2566.9471678105633
1113,22.26,2105.4876905367464
1114,22.28,1866.3756872395722
1115,22.3,1926.6470214087012
1116,22.32,2202.8311927901796
1117,22.34,2479.741828050452
1118,22.36,2575.359527302439
1119,22.38,2450.283033152822
1120,22.400000000000002,2172.341065762083
1121,22.42,1811.691652252619
1122,22.44,1405.6926476411331
1123,22.46,1019.10715470783
1124,22.48,753.9718853984493
1125,22.5,651.2647767874921
1126,22.52,642.1398791629089
1127,22.54,639.0574749253414
1128,22.56,644.2126280245391
1129,22.580000000000002,754.2899256085909
1130,22.6,1058.2638755002456
1131,22.62,1520.527793022576
1132,22.64,1982.718901159315
1133,22.66,2273.343585249243
1134,22.68,2288.932185426894
1135,22.7,2012.4846760238424
1136,22.72,1518.623453576721
1137,22.740000000000002,963.897385299224
1138,22.76,524.8725243452733
1139,22.78,312.87873127606804
1140,22.8,365.04579129132577
1141,22.82,698.5015540461291
1142,22.84,1284.3773234796029
1143,22.86,1954.2605500141542
1144,22.88,2439.528513450792
1145,22.900000000000002,2592.2586045422995
1146,22.92,2518.872648633092
1147,22.94,2405.516252504751
1148,22.96,2294.6014828519333
1149,22.98,2128.431698099416
1150,23.0,1875.3575481994167
1151,23.02,1538.315379018272
1152,23.04,1151.566397559337
1153,23.06,778.0783918013685
1154,23.080000000000002,485.92734764632644
1155,23.1,378.5558727345024
1156,23.12,604.9012532911785
1157,23.14,1243.75167853847
1158,23.16,2238.069202373499
1159,23.18,3355.879038161951
1160,23.2,4143.95436453519
1161,23.22,4329.189114839138
1162,23.240000000000002,4063.284570130013
1163,23.26,3483.285328127734
1164,23.28,2655.643927846604
1165,23.3,1819.922405335179
1166,23.32,1195.7762458982827
1167,23.34,822.7466057054844
1168,23.36,664.0062540811901
1169,23.38,694.182132625305
1170,23.400000000000002,891.852931479067
1171,23.42,1189.236904001134
1172,23.44,1468.8953048574258
1173,23.46,1626.0803852991708
1174,23.48,1619.146709709887
1175,23.5,1479.754345570773
1176,23.52,1290.265841058378
1177,23.54,1137.604786301079
1178,23.56,1103.82342215897
1179,23.580000000000002,1285.7444366027696
1180,23.6,1754.1774101478245
1181,23.62,2513.1860738496102
1182,23.64,3418.1276995438457
1183,23.66,4096.030229991421
1184,23.68,4237.64970693345
1185,23.7,3836.607543498936
1186,23.72,3026.051223959651
1187,23.740000000000002,2054.1465289169982
1188,23.76,1249.8154161103193
1189,23.78,785.8535261012761
1190,23.8,643.1534006229894
1191,23.82,739.8651705467614
1192,23.84,991.5485821376694
1193,23.86,1307.335416224949
1194,23.88,1590.699993636508
1195,23.900000000000002,1759.5901198777815
1196,23.92,1759.082946369042
1197,23.94,1583.2006125064095
1198,23.96,1298.4721553099039
1199,23.98,1016.5300501421301
1200,24.0,825.834040077262
1201,24.02,741.890903928318
1202,24.04,735.2353717033607
1203,24.060000000000002,814.78856997679
1204,24.080000000000002,1052.5036129815837
1205,24.1,1502.0316718614906
1206,24.12,2101.9284326934894
1207,24.14,2678.2347169707105
1208,24.16,3022.8083454937796
1209,24.18,2991.909729213384
1210,24.2,2615.3463065773926
1211,24.22,2077.37266850502
1212,24.240000000000002,1547.8291100556048
1213,24.26,1097.2920709181508
1214,24.28,752.6312080601524
1215,24.3,545.6066169661025
1216,24.32,503.64620089996737
1217,24.34,622.5210612717403
1218,24.36,848.3306966061953
1219,24.38,1085.5984554017246
1220,24.400000000000002,1244.6582611999397
1221,24.42,1294.631414032352
1222,24.44,1263.6371640983132
1223,24.46,1190.8601020158994
1224,24.48,1093.8926514105567
1225,24.5,986.4692136296894
1226,24.52,904.1144460272301
1227,24.54,901.4518412461442
1228,24.560000000000002,1039.3524344344924
1229,24.580000000000002,1350.831895049391
1230,24.6,1788.8965009051983
1231,24.62,2225.961910501734
1232,24.64,2519.3141067224137
1233,24.66,2584.9278793432636
1234,24.68,2435.392305353545
1235,24.7,2157.1095103100024
1236,24.72,1846.1752986406725
1237,24.740000000000002,1564.595363667038
1238,24.76,1344.5167667979617
1239,24.78,1210.9474248868205
1240,24.8,1181.5561627321733
1241,24.82,1245.290459871306
1242,24.84,1362.4326171596265
1243,24.86,1495.7106594260208
1244,24.88,1624.8616716072524
1245,24.900000000000002,1735.2192138084167
1246,24.92,1817.3757114398877
1247,24.94,1868.7784139447947
1248,24.96,1881.5385607285973
1249,24.98,1846.4273846286
1250,25.0,1778.9384093003205
1251,25.02,1728.708362332121
1252,25.04,1763.6446983495853
1253,25.060000000000002,1949.5862361000968
1254,25.080000000000002,2334.949202812276
1255,25.1,2939.0067778278117
1256,25.12,3643.449779165536
1257,25.14,4136.333527776115
1258,25.16,4151.52037600546
1259,25.18,3669.2649696285653
1260,25.2,2906.7651272861076
1261,25.22,2186.011537377608
1262,25.240000000000002,1688.9240140673246
1263,25.26,1407.670077692779
1264,25.28,1299.6187494737474
1265,25.3,1341.6861204947231
1266,25.32,1481.9247090946817
1267,25.34,1629.2056543745396
1268,25.36,1701.3845386309165
1269,25.38,1670.3976383161205
1270,25.400000000000002,1567.5937858467053
1271,25.42,1448.5302755230014
1272,25.44,1350.0822885013629
1273,25.46,1277.48345531366
1274,25.48,1227.7336133610472
1275,25.5,1228.1346640622155
1276,25.52,1344.8778958024868
1277,25.54,1631.6817137556695
1278,25.560000000000002,2059.2782323820597
1279,25.580000000000002,2500.995770738245
1280,25.6,2791.9799421372554
1281,25.62,2819.583481145584
1282,25.64,2588.7709001828753
1283,25.66,2205.4737321277116
1284,25.68,1791.0804729925048
1285,25.7,1426.6349340738905
1286,25.72,1166.6922091945842
1287,25.740000000000002,1058.15684007069
1288,25.76,1118.8193375404371
1289,25.78,1307.6522407305595
1290,25.8,1536.0056174479037
1291,25.82,1719.8758700226647
1292,25.84,1823.487804719413
1293,25.86,1857.5181937223656
1294,25.88,1844.2052529217476
1295,25.900000000000002,1793.2184724288245
1296,25.92,1711.509464685362
1297,25.94,1620.2662921758179
1298,25.96,1559.4823639271738
1299,25.98,1587.2487757101978
1300,26.0,1761.1302473981457
1301,26.02,2094.5681936649908
1302,26.04,2531.352272490032
1303,26.060000000000002,2959.8511421948915
1304,26.080000000000002,3229.9343393810686
1305,26.1,3210.2811301260276
1306,26.12,2905.5768303951495
1307,26.14,2465.965233167938
1308,26.16,2044.5166830436563
1309,26.18,1706.0356446226187
1310,26.2,1464.039162413359
1311,26.22,1333.5272711289247
1312,26.240000000000002,1329.677807638641
1313,26.26,1434.2063932604767
1314,26.28,1584.0018253705666
1315,26.3,1707.3539780270903
1316,26.32,1767.5703822847927
1317,26.34,1764.5477980233693
1318,26.36,1706.611491139498
1319,26.38,1599.7965315429885
1320,26.400000000000002,1463.4799433922517
1321,26.42,1343.4236972825224
1322,26.44,1303.6331022480904
1323,26.46,1406.00033134295
1324,26.48,1687.154225462537
1325,26.5,2139.2333843374095
1326,26.52,2718.441545179604
1327,26.54,3320.434464697563
1328,26.560000000000002,3698.7554418526925
1329,26.580000000000002,3588.433677797318
1330,26.6,3022.3865059491677
1331,26.62,2325.0081900828127
1332,26.64,1765.5000415029804
1333,26.66,1399.26238432855
1334,26.68,1193.9301892441893
1335,26.7,1137.3888745610222
1336,26.72,1221.1871833605378
1337,26.740000000000002,1400.1836464826745
1338,26.76,1594.9420989344262
1339,26.78,1732.8487377627625
1340,26.8,1785.413192225159
1341,26.82,1763.0349089638098
1342,26.84,1682.700248958935
1343,26.86,1548.9138652171248
1344,26.88,1371.097096930805
1345,26.900000000000002,1194.2409109037437
1346,26.92,1094.886386757323
1347,26.94,1144.6854467067153
1348,26.96,1380.3727609915213
1349,26.98,1786.5989030163646
1350,27.0,2284.9097738457795
1351,27.02,2738.6501407956284
1352,27.04,2982.3352781361186
1353,27.060000000000002,2905.4797908883024
1354,27.080000000000002,2551.047649687604
1355,27.1,2087.439498059549
1356,27.12,1675.9037944149666
1357,27.14,1399.9293912900014
1358,27.16,1283.4662612147094
1359,27.18,1318.340933547643
1360,27.2,1465.1699984578493
1361,27.22,1652.3160544092113
1362,27.240000000000002,1803.5392171749356
1363,27.26,1873.861125693741
1364,27.28,1859.6291167516874
1365,27.3,1785.237659803596
1366,27.32,1676.093114922612
1367,27.34,1540.997121173723
1368,27.36,1392.2408439279727
1369,27.38,1272.4730982259948
1370,27.400000000000002,1253.0570280356508
1371,27.42,1410.1110881400161
1372,27.44,1770.02360544771
1373,27.46,2255.400850626048
1374,27.48,2701.215133477625
1375,27.5,2931.349181270007
1376,27.52,2856.3806918037885
1377,27.54,2537.1768897796483
1378,27.560000000000002,2127.8163809603416
1379,27.580000000000002,1750.2820061525758
1380,27.6,1447.0246264287398
1381,27.62,1225.8827740499082
1382,27.64,1099.655348464053
1383,27.66,1077.7700027098008
1384,27.68,1149.5776166702726
1385,27.7,1282.8159380439506
1386,27.72,1429.1027993326452
1387,27.740000000000002,1536.4706204197228
1388,27.76,1565.6279855349612
1389,27.78,1503.630775689377
1390,27.8,1373.4043973505036
1391,27.82,1223.8467397435638
1392,27.84,1105.202040388967
1393,27.86,1063.0047925439146
1394,27.88,1141.7533902329574
1395,27.900000000000002,1366.4233165602775
1396,27.92,1712.7609476579657
1397,27.94,2099.0270267399537
1398,27.96,2417.7465099573938
1399,27.98,2591.1201386603266
1400,28.0,2594.375902616868
1401,28.02,2436.2343812260387
1402,28.04,2152.824991052314
1403,28.060000000000002,1814.220941961303
1404,28.080000000000002,1505.044989162051
1405,28.1,1290.6662591422082
1406,28.12,1191.6532184943212
1407,28.14,1181.503072568706
1408,28.16,1210.953761314311
1409,28.18,1239.9626385950642
1410,28.2,1257.607287577437
1411,28.22,1280.2712093273562
1412,28.240000000000002,1322.7202030674894
1413,28.26,1367.231515469429
1414,28.28,1379.252664000955
1415,28.3,1355.3231433803664
1416,28.32,1343.2809245395104
1417,28.34,1420.4067708642806
1418,28.36,1649.3651700704486
1419,28.38,2034.9477569737521
1420,28.400000000000002,2509.5598125985116
1421,28.42,2937.552677586085
1422,28.44,3134.9097467800157
1423,28.46,2978.8615060005322
1424,28.48,2539.3634972996915
1425,28.5,2021.8764661602775
1426,28.52,1588.3929954848652
1427,28.54,1294.7281316211797
1428,28.560000000000002,1144.8165854482427
1429,28.580000000000002,1129.3647062837283
1430,28.6,1217.492907012181
1431,28.62,1352.9522318838685
1432,28.64,1480.303689293241
1433,28.66,1567.3627810422347
1434,28.68,1603.7472967550214
1435,28.7,1591.947523134358
1436,28.72,1540.0079157482114
1437,28.740000000000002,1461.5785652986162
1438,28.76,1384.1452357275307
1439,28.78,1353.247835111509
1440,28.8,1422.0866016524865
1441,28.82,1630.4120425079493
1442,28.84,1992.428381989231
1443,28.86,2508.57405210224
1444,28.88,3155.74111839521
1445,28.900000000000002,3790.060503101683
1446,28.92,4136.5631678411155
1447,28.94,4001.9083139299464
1448,28.96,3442.080628474161
1449,28.98,2715.1844013839986
1450,29.0,2090.699235953584
1451,29.02,1680.442516471392
1452,29.04,1463.3260893095437
1453,29.060000000000002,1392.228915197562
1454,29.080000000000002,1425.9753168756097
1455,29.1,1516.4267467821571
1456,29.12,1611.097803187472
1457,29.14,1678.5628790969429
1458,29.16,1717.9417505947424
1459,29.18,1736.8587621794115
1460,29.2,1730.631656137293
1461,29.22,1688.1686192622465
1462,29.240000000000002,1612.3683339303568
1463,29.26,1534.5427992611806
1464,29.28,1519.790960761806
1465,29.3,1653.5390174621014
1466,29.32,1998.7172534521515
1467,29.34,2577.118945434564
1468,29.36,3316.8257865116916
1469,29.38,3954.496927623909
1470,29.400000000000002,4219.520981274605
1471,29.42,4057.0002383858377
1472,29.44,3513.1792710548107
1473,29.46,2741.599900996058
1474,29.48,2035.5095961527568
1475,29.5,1580.5535038553437
1476,29.52,1367.0759616889643
1477,29.54,1323.9654491561942
1478,29.560000000000002,1388.4379897412493
1479,29.580000000000002,1501.3824126881084
1480,29.6,1605.1413886890252
1481,29.62,1665.266896747848
1482,29.64,1683.3581181555135
1483,29.66,1675.366130080408
1484,29.68,1641.8742975203577
1485,29.7,1568.3048166003073
1486,29.72,1457.831692786359
1487,29.740000000000002,1355.319315555131
1488,29.76,1333.6728334639024
1489,29.78,1467.2706633933028
1490,29.8,1805.7023664050173
1491,29.82,2357.222733463402
1492,29.84,3072.6230503266415
1493,29.86,3769.3950267304044
1494,29.88,4117.96667982848
1495,29.900000000000002,3880.914633511827
1496,29.92,3176.7325792598117
1497,29.94,2375.13247982814
1498,29.96,1744.9117271675013
1499,29.98,1326.7437184162752
1500,30.0,1087.8047570670515
1501,30.02,1029.2942247070314
1502,30.04,1146.2634763953165
1503,30.060000000000002,1371.9202111106256
1504,30.080000000000002,1597.8377235397138
1505,30.1,1749.0220130748498
1506,30.12,1816.5693621235375
1507,30.14,1818.9954663271096
1508,30.16,1764.64976127519
1509,30.18,1656.3469385345475
1510,30.2,1514.9093062463753
1511,30.22,1390.6575339166936
1512,30.240000000000002,1354.561116232744
1513,30.26,1485.5690070639241
1514,30.28,1846.590196471892
1515,30.3,2464.0446817733005
1516,30.32,3257.3922583861186
1517,30.34,3940.9916177745667
1518,30.36,4215.056831884181
1519,30.38,4003.369882622689
1520,30.400000000000002,3379.2953591866876
1521,30.42,2555.2453829772053
1522,30.44,1832.1147668041085
1523,30.46,1347.001187980025
1524,30.48,1059.850822158068
1525,30.5,925.4759522282502
1526,30.52,934.6208396603683
1527,30.54,1061.995248278334
1528,30.560000000000002,1248.0509902865704
1529,30.580000000000002,1423.630250705816
1530,30.6,1528.3632600072344
1531,30.62,1525.138232145178
1532,30.64,1425.8277414705958
1533,30.66,1291.7110754237415
1534,30.68,1188.9986299106145
1535,30.7,1151.3243245755064
1536,30.72,1195.4015744646854
1537,30.740000000000002,1362.9846121838127
1538,30.76,1720.905811806566
1539,30.78,2317.183810200533
1540,30.8,3101.3784821511226
1541,30.82,3830.1305421759075
1542,30.84,4172.636181702528
1543,30.86,3964.3424769113753
1544,30.88,3296.786313693259
1545,30.900000000000002,2461.0942431846674
1546,30.92,1755.4891685243983
1547,30.94,1276.9442301014542
1548,30.96,978.0497173142973
1549,30.98,822.598264496042
1550,31.0,805.883705496381
1551,31.02,908.9225825478989
1552,31.04,1083.6557833388601
1553,31.060000000000002,1273.8242059054983
1554,31.080000000000002,1439.8469916731224
1555,31.1,1565.9088055823333
1556,31.12,1646.6532719467323
1557,31.14,1677.0263587369977
1558,31.16,1658.238436592409
1559,31.18,1604.8391582335864
1560,31.2,1549.3605098503292
1561,31.220000000000002,1552.891357679111
1562,31.240000000000002,1702.5271784501979
1563,31.26,2069.8337820461084
1564,31.28,2674.3533902149798
1565,31.3,3415.5739089168083
1566,31.32,3993.9004188605227
1567,31.34,4070.9048718676663
1568,31.36,3576.866145526439
1569,31.38,2792.2126893042473
1570,31.400000000000002,2085.054019048664
1571,31.42,1596.0210935195216
1572,31.44,1260.3122649891966
1573,31.46,1023.2113584935255
1574,31.48,909.1736855243817
1575,31.5,948.2976725558316
1576,31.52,1108.1055184389286
1577,31.54,1303.1568477364958
1578,31.560000000000002,1452.5258236586008
1579,31.580000000000002,1523.1149944156898
1580,31.6,1530.3647339363986
1581,31.62,1505.302547067082
1582,31.64,1463.86744762804
1583,31.66,1405.5056100301326
1584,31.68,1331.1287000176417
1585,31.7,1266.4354901599029
1586,31.720000000000002,1278.8544103449512
1587,31.740000000000002,1461.15623921936
1588,31.76,1876.9460776798037
1589,31.78,2532.0397911235227
1590,31.8,3324.3394454745503
1591,31.82,3953.2569298744684
1592,31.84,4052.6894784889
1593,31.86,3533.2308596930275
1594,31.88,2708.177217989943
1595,31.900000000000002,1985.149911281513
1596,31.92,1507.788322550717
1597,31.94,1206.587314277873
1598,31.96,1031.7712786677266
1599,31.98,1002.3563567875294
1600,32.0,1119.0095326976984
1601,32.02,1317.1992180871894
1602,32.04,1506.1737263485697
1603,32.06,1618.1396511322612
1604,32.08,1628.2128766375072
1605,32.1,1562.0678294571676
1606,32.12,1487.7107533609
1607,32.14,1473.2550547261603
1608,32.160000000000004,1530.6812672493154
1609,32.18,1603.9712233083624
1610,32.2,1635.824319241403
1611,32.22,1655.1054365249493
1612,32.24,1781.7650583386815
1613,32.26,2139.2057653520683
1614,32.28,2778.0689551088453
1615,32.3,3564.2498341348446
1616,32.32,4135.851107629679
1617,32.34,4194.307980527279
1618,32.36,3727.6429464079165
1619,32.38,2937.6611748297328
1620,32.4,2126.257224993338
1621,32.42,1503.4912158782656
1622,32.44,1094.0548577223803
1623,32.46,868.8748412500801
1624,32.480000000000004,829.6259256044692
1625,32.5,959.2006361803769
1626,32.52,1181.631045556698
1627,32.54,1404.3111524105045
1628,32.56,1572.151858869579
1629,32.58,1669.0216875609326
1630,32.6,1692.5958120458522
1631,32.62,1637.8450954825987
1632,32.64,1500.9536287577544
1633,32.660000000000004,1309.2977830328873
1634,32.68,1138.3371309684444
1635,32.7,1075.636809037687
1636,32.72,1181.3614263411123
1637,32.74,1489.7744479592643
1638,32.76,2010.355866320499
1639,32.78,2731.5027318257307
1640,32.8,3536.753193237943
1641,32.82,4115.615771500347
1642,32.84,4180.370949463103
1643,32.86,3700.9668432518965
1644,32.88,2896.7528463370077
1645,32.9,2097.54237504617
1646,32.92,1502.6686530787424
1647,32.94,1116.0005557076986
1648,32.96,897.8117137540941
1649,32.980000000000004,840.4753325101628
1650,33.0,930.0579097101569
1651,33.02,1107.373877478882
1652,33.04,1286.5584575704277
1653,33.06,1406.6565595534223
1654,33.08,1457.8787342994242
1655,33.1,1461.7562273235196
1656,33.12,1441.0712595719
1657,33.14,1412.9392329941734
1658,33.160000000000004,1389.6811827808726
1659,33.18,1374.3449230140498
1660,33.2,1372.4374962901725
1661,33.22,1428.323114724825
1662,33.24,1634.5297274762866
1663,33.26,2065.3799308683338
1664,33.28,2698.9677881671805
1665,33.3,3358.76250126611
1666,33.32,3696.8545900944773
1667,33.34,3435.5788063394402
1668,33.36,2693.64149827866
1669,33.38,1851.300787870627
1670,33.4,1160.3949916652418
1671,33.42,664.417670681055
1672,33.44,347.6053098134915
1673,33.46,214.03283417890896
1674,33.480000000000004,268.1541570678872
1675,33.5,473.6745975294725
1676,33.52,743.8504132033921
1677,33.54,985.6414605083921
1678,33.56,1161.952623692957
1679,33.58,1292.2338498868567
1680,33.6,1390.7309361366401
1681,33.62,1435.274688676072
1682,33.64,1401.9469729036139
1683,33.660000000000004,1310.445835204289
1684,33.68,1224.8284478816456
1685,33.7,1217.3465103453073
1686,33.72,1353.4567965087433
1687,33.74,1704.5731524265652
1688,33.76,2370.7493461290755
1689,33.78,3305.56298133201
1690,33.8,4083.412139312258
1691,33.82,4321.850032751125
1692,33.84,4186.391518982329
1693,33.86,3929.7341342963564
1694,33.88,3408.0591897986324
1695,33.9,2550.6488420052488
1696,33.92,1697.1140491521767
1697,33.94,1136.7569175844149
1698,33.96,818.1115947123293
1699,33.980000000000004,568.9556549021578
1700,34.0,311.90782590279946
1701,34.02,87.80929059596812
1702,34.04,-29.824455248518284
1703,34.06,-23.194388042629868
1704,34.08,86.30923684117505
1705,34.1,298.04568640973673
1706,34.12,591.2231434128538
1707,34.14,882.2589265797465
1708,34.160000000000004,1119.8156335360916
1709,34.18,1368.2497516368228
1710,34.2,1721.2679575695422
1711,34.22,2239.974372322843
1712,34.24,2958.6196315169136
1713,34.26,3720.9949181779416
1714,34.28,4186.788563890162
1715,34.300000000000004,4241.75950409862
1716,34.32,4119.94485315903
1717,34.34,4014.9279298825422
1718,34.36,3696.4386799760837
1719,34.38,2698.6229665903907
1720,34.4,1167.7156643691353
1721,34.42,-12.03044552627432
1722,34.44,-321.73162495754235
1723,34.46,-114.90308101211022
1724,34.480000000000004,68.69823693875212
1725,34.5,70.007436392089
1726,34.52,25.06673361784184
1727,34.54,103.30203437171821
1728,34.56,346.2272570536924
1729,34.58,611.0380026041955
1730,34.6,690.6690673942129
1731,34.62,522.4493821793086
1732,34.64,238.17863898924008
1733,34.660000000000004,23.59911578721088
1734,34.68,-13.185351539784932
1735,34.7,162.85419629038685
1736,34.72,545.8627399803974
1737,34.74,1058.1499578032974
1738,34.76,1568.958378020021
1739,34.78,1995.3435189542809
1740,34.800000000000004,2340.105990996086
1741,34.82,2605.784099168116
1742,34.84,2722.074903044119
1743,34.86,2619.402357974958
1744,34.88,2336.665701210119
1745,34.9,1996.8868379278208
1746,34.92,1703.961690619215
1747,34.94,1493.9792335198958
1748,34.96,1365.1623421623815
1749,34.980000000000004,1324.3553328340618
1750,35.0,1395.533253024748
1751,35.02,1581.469025367118
1752,35.04,1817.676420702799
1753,35.06,1990.3557459717802
1754,35.08,2019.0014339138138
1755,35.1,1911.3643649102414
1756,35.12,1738.8807229745503
1757,35.14,1569.5693440213918
1758,35.160000000000004,1425.216816466575
1759,35.18,1308.3140495474634
1760,35.2,1266.1750723623886
1761,35.22,1390.7267306076346
1762,35.24,1730.0949168476434
1763,35.26,2217.9150889228467
1764,35.28,2698.5784789922186
1765,35.300000000000004,3007.1399925406463
1766,35.32,3045.3522242103863
1767,35.34,2826.8716737894997
1768,35.36,2446.8138754923016
1769,35.38,1986.5296126845878
1770,35.4,1476.6844686434667
1771,35.42,979.6246728627488
1772,35.44,652.5529506132447
1773,35.46,649.3353742123487
1774,35.480000000000004,961.0149607547007
1775,35.5,1409.4162511761526
1776,35.52,1808.2585044460684
1777,35.54,2091.554305422876
1778,35.56,2274.9733878520933
1779,35.58,2350.5191280536465
1780,35.6,2281.7715578303723
1781,35.62,2080.7337296244314
1782,35.64,1821.8612147449885
1783,35.660000000000004,1576.293866232598
1784,35.68,1383.7301191473362
1785,35.7,1301.67089487158
1786,35.72,1431.8569545722137
1787,35.74,1836.222934076058
1788,35.76,2452.316713068213
1789,35.78,3146.3459319527738
1790,35.800000000000004,3745.7738888403424
1791,35.82,3989.320541596007
1792,35.84,3693.4660937896015
1793,35.86,3027.462428479333
1794,35.88,2373.006507891037
1795,35.9,1918.6646757845215
1796,35.92,1597.087324096809
1797,35.94,1310.1687983270558
1798,35.96,1017.0481414710126
1799,35.980000000000004,726.8002928761763
1800,36.0,555.7931619013368
1801,36.02,667.1492534686529
1802,36.04,1070.099906524333
1803,36.06,1589.780256157794
1804,36.08,2040.5819530827966
1805,36.1,2322.2444564388447
1806,36.12,2388.8777529964505
1807,36.14,2255.4876817011404
1808,36.160000000000004,2037.4610586779438
1809,36.18,1905.8019158357781
1810,36.2,1965.2933779559426
1811,36.22,2173.2488116085756
1812,36.24,2378.3320161179995
1813,36.26,2433.8304420923164
1814,36.28,2289.191038894592
1815,36.300000000000004,2010.9625795764075
1816,36.32,1731.0242510741662
1817,36.34,1563.16434484269
1818,36.36,1548.9734403119633
1819,36.38,1657.9964178360274
1820,36.4,1812.9410844348877
1821,36.42,1908.8048633596493
1822,36.44,1854.9700615414588
1823,36.46,1641.7262057060088
1824,36.480000000000004,1356.3746955556178
1825,36.5,1112.4474487989605
1826,36.52,964.0241119821712
1827,36.54,902.2075873683759
1828,36.56,906.9215157142959
1829,36.58,972.5859748340918
1830,36.6,1096.8528302285783
1831,36.62,1262.5440480337595
1832,36.64,1469.0907916495826
1833,36.660000000000004,1792.249796907822
1834,36.68,2364.9827237569857
1835,36.7,3183.4793342759335
1836,36.72,3928.3791770937205
1837,36.74,4252.982720673002
1838,36.76,4126.627103993639
1839,36.78,3644.3973501354626
1840,36.800000000000004,2917.753834010027
1841,36.82,2205.6789215460203
1842,36.84,1748.9267471054563
1843,36.86,1570.897868256651
1844,36.88,1560.5926785286244
1845,36.9,1609.1441159783394
1846,36.92,1656.1268251095366
1847,36.94,1692.930349778753
1848,36.96,1742.908439035397
1849,36.980000000000004,1812.0863910410228
1850,37.0,1851.4358614216915
1851,37.02,1802.8550250708727
1852,37.04,1694.4187205907585
1853,37.06,1625.3657016782113
1854,37.08,1649.2976377610778
1855,37.1,1757.2726240648674
1856,37.12,1967.5051843968176
1857,37.14,2345.578954375872
1858,37.160000000000004,2939.196613926776
1859,37.18,3639.8875936627146
1860,37.2,4110.951104233128
1861,37.22,4036.5005630811875
1862,37.24,3418.3831412996888
1863,37.26,2566.151564492921
1864,37.28,1827.9270110003224
1865,37.300000000000004,1345.5343530930709
1866,37.32,1107.5955491325649
1867,37.34,1099.7378503348016
1868,37.36,1300.0418314984702
1869,37.38,1621.6632210805994
1870,37.4,1926.0520386383846
1871,37.42,2094.6305048206304
1872,37.44,2085.896801448777
1873,37.46,1944.8109324051748
1874,37.480000000000004,1777.2253058518124
1875,37.5,1727.1882046661935
1876,37.52,1935.152025762129
1877,37.54,2412.8104705795336
1878,37.56,2962.861773992325
1879,37.58,3282.747083543179
1880,37.6,3176.266478555436
1881,37.62,2698.008009993425
1882,37.64,2046.7890981823607
1883,37.660000000000004,1345.969161607493
1884,37.68,657.8000155163127
1885,37.7,129.50950915876234
1886,37.72,-94.69935631449432
1887,37.74,-72.25741674524627
1888,37.76,5.524080314571364
1889,37.78,28.334653516702115
1890,37.800000000000004,9.958031854781964
1891,37.82,-5.892019892689512
1892,37.84,-6.006118831866196
1893,37.86,-0.4211878308758026
1894,37.88,1.9584720143214807
1895,37.9,26.588134933439804
1896,37.92,250.0859848899251
1897,37.94,940.0286364080937
1898,37.96,2020.5542210816911
1899,37.980000000000004,3000.5885518827736
1900,38.0,3488.1443818126736
1901,38.02,3513.7052501827034
1902,38.04,3458.9811234503277
1903,38.06,3664.4731494312955
1904,38.08,4016.6955319907597
1905,38.1,4195.584032368261
1906,38.12,4161.851518169659
1907,38.14,4086.756038120565
1908,38.160000000000004,4067.7067496265745
1909,38.18,4086.4859819096473
1910,38.2,4101.133190981912
1911,38.22,4100.594894373053
1912,38.24,4095.163383550899
1913,38.26,4093.0797393244857
1914,38.28,4094.137611745831
1915,38.300000000000004,4095.3213336770214
1916,38.32,4095.4411256475382
1917,38.34,4095.0705511415235
1918,38.36,4094.8727540909913
1919,38.38,4094.921625101843
1920,38.4,4095.0124013433747
1921,38.42,4095.033052481912
1922,38.44,4095.009436215808
1923,38.46,3918.818488286748
1924,38.480000000000004,3083.954688240328
1925,38.5,1511.220222636607
1926,38.52,87.48194866012204
1927,38.54,-390.6346982437339
1928,38.56,-177.31140889570116
1929,38.58,67.3383177153486
1930,38.6,91.66640772574019
1931,38.62,14.528992690534807
1932,38.64,-26.48601901563891
1933,38.660000000000004,-16.256379029896344
1934,38.68,2.6055611669616887
1935,38.7,6.869675952579879
1936,38.72,1.9512741825764413
1937,38.74,-1.6244999190905014
1938,38.76,-1.3740055927719377
1939,38.78,0.001912661128078308
1940,38.800000000000004,0.48918697324555843
1941,38.82,0.20421909167492142
1942,38.84,-0.08834151651286931
1943,38.86,-0.10959139659616757
1944,38.88,-0.01450231725853178
1945,38.9,0.03287952325966936
1946,38.92,0.018926590085782635
1947,38.94,-0.0037594026684880898
1948,38.96,-0.008302043846667006
1949,38.980000000000004,-0.0021410940725942774
1950,39.0,0.0020541406804648176
1951,39.02,0.0016214330514224494
1952,39.04,-5.099055474967892e-05
1953,39.06,-0.0005976908323154118
1954,39.08,-0.00023222201416713402
1955,39.1,0.00011517966754211913
1956,39.12,0.00013078626759946234
1957,39.14,1.3840384054756723e-05
1958,39.160000000000004,-4.069042628194139e-05
1959,39.18,-2.1962952327833584e-05
1960,39.2,1.6750349996708174
1961,39.22,53.58254498858624
1962,39.24,244.82437557656556
1963,39.26,533.0414278968785
1964,39.28,743.0613027505156
1965,39.300000000000004,836.8508143559799
1966,39.32,962.0934519364746
1967,39.34,1227.3627155156796
1968,39.36,1593.8517664058143
1969,39.38,1951.6251711051707
1970,39.4,2189.1560410295533
1971,39.42,2199.6422702984623
1972,39.44,1907.9942216807135
1973,39.46,1337.6190526872012
1974,39.480000000000004,655.4824119844009
1975,39.5,122.59898919915453
1976,39.52,-67.43921917725822
1977,39.54,25.974241454143574
1978,39.56,129.26381817981093
1979,39.58,88.33957943585489
1980,39.6,-0.6869049109104637
1981,39.62,-30.379804102084933
1982,39.64,-12.273452273206647
1983,39.660000000000004,5.6904030323975885
1984,39.68,6.751215428217656
1985,39.7,0.8059753907796003
1986,39.72,-0.38694987202523246
1987,39.74,208.1116358361566
1988,39.76,1138.658602668841
1989,39.78,2794.9041131218446
1990,39.800000000000004,4172.44208840688
1991,39.82,4521.632468097683
1992,39.84,4235.413674264971
1993,39.86,4000.464188994093
1994,39.88,4005.2236585296764
1995,39.9,4090.956340080921
1996,39.92,4125.21022882794
1997,39.94,4109.089971799205
1998,39.96,4090.16337257955
1999,39.980000000000004,4087.9658874250217
2000,40.0,4093.7728784455003
2001,40.02,4096.986264535319
2002,40.04,4096.268135262485
2003,40.06,4094.8251548558164
2004,40.08,4094.4760104717902
2005,40.1,4094.842671937863
2006,40.12,4095.1203525650626
2007,40.14,4095.106332154435
2008,40.160000000000004,4095.00175894029
2009,40.18,4094.962941322835
2010,40.2,4094.983852537957
2011,40.22,4095.006408924084
2012,40.24,4095.00842397995
2013,40.26,4095.001250403944
2014,40.28,4094.997529462904
2015,40.300000000000004,4094.9985207484733
2016,40.32,4095.0002585509105
2017,40.34,4095.000634090789
2018,40.36,4095.0001736917025
2019,40.38,4094.99984736631
2020,40.4,4094.9998743302986
2021,40.42,4095.0000016156337
2022,40.44,4095.0000453456078
2023,40.46,4095.000018419013
2024,40.480000000000004,4094.9999915969674
2025,40.5,4094.9999899333616
2026,40.52,4094.9999987703595
2027,40.54,4095.000003063113
2028,40.56,4095.000001720077
2029,40.58,4094.9999996316924
2030,40.6,4094.9999992343373
2031,40.62,3966.5153659654115
2032,40.64,3450.3380409730044
2033,40.660000000000004,2612.8239495197795
2034,40.68,1899.5246983919283
2035,40.7,1544.1650088688618
2036,40.72,1417.7563104865656
2037,40.74,1351.4538308028336
2038,40.76,1296.5378373844158
2039,40.78,1268.444214200768
2040,40.800000000000004,1266.9281490972398
2041,40.82,1266.1401804608995
2042,40.84,1244.2487148369062
2043,40.86,1204.4674156843932
2044,40.88,1172.8590737772543
2045,40.9,1180.3089752268727
2046,40.92,1237.5775156827156
2047,40.94,1316.3585205003121
2048,40.96,1366.5738947751256
2049,40.980000000000004,1365.0628410210174
2050,41.0,1331.5820410133192
2051,41.02,1297.196037874449
2052,41.04,1282.31887624846
2053,41.06,1303.4942919285995
2054,41.08,1380.4563587795478
2055,41.1,1521.6251084266455
2056,41.12,1698.9491434972992
2057,41.14,1852.215424274888
2058,41.160000000000004,1923.402535640754
2059,41.18,1886.775450414088
2060,41.2,1762.8487400399756
2061,41.22,1603.9619100881591
2062,41.24,1453.6762690654377
2063,41.26,1320.8469222149904
2064,41.28,1189.3450304108806
2065,41.300000000000004,1044.3409467523527
2066,41.32,887.1376616714981
2067,41.34,724.8195695871597
2068,41.36,554.2782789296085
2069,41.38,372.2827164785156
2070,41.4,195.03385968022903
2071,41.42,55.43797377037717
2072,41.44,-15.804453817652707
2073,41.46,-21.526123235580833
2074,41.480000000000004,-2.6386320216741304
2075,41.5,6.666567582104744
2076,41.52,3.749292532204487
2077,41.54,-0.796175967342533
2078,41.56,-1.6656787333007108
2079,41.58,-0.4146057463036208
2080,41.6,0.41841197167725896
2081,41.62,0.3226265706512952
2082,41.64,-0.013588777461451956
2083,41.660000000000004,-0.12036826437663586
2084,41.68,-0.045586885411519895
2085,41.7,0.023690166709693206
2086,41.72,0.02612648147520221
2087,41.74,0.00252264270970381
2088,41.76,2.257986752255689
2089,41.78,86.92738713145324
2090,41.800000000000004,431.2310739194651
2091,41.82,1039.2598262413699
2092,41.84,1612.9683388481023
2093,41.86,1876.8300251428477
2094,41.88,1817.44795510178
2095,41.9,1572.6358798808399
2096,41.92,1259.1826426152638
2097,41.94,935.8721229724417
2098,41.96,660.6584923909138
2099,41.980000000000004,525.5316315724797
2100,42.0,633.6949079293202
2101,42.02,1045.542005195053
2102,42.04,1737.483180569364
2103,42.06,2631.7021845507197
2104,42.08,3550.6069894416564
2105,42.1,4157.242525527047
2106,42.12,4278.167206176788
2107,42.14,4143.830621015847
2108,42.160000000000004,3962.233462753557
2109,42.18,3531.679295295694
2110,42.2,2604.129958909873
2111,42.22,1382.4744219370273
2112,42.24,367.36555041513
2113,42.26,-114.28836513504837
2114,42.28,-134.7172690153776
2115,42.300000000000004,-8.87724956636491
2116,42.32,45.26357198671495
2117,42.34,22.87925395554662
2118,42.36,30.072009042670658
2119,42.38,178.94217079800686
2120,42.4,464.1474533804354
2121,42.42,742.6651733381987
2122,42.44,901.9754038619991
2123,42.46,963.3607317744095
2124,42.480000000000004,1011.4234024243963
2125,42.5,1107.7693607663075
2126,42.52,1283.624609484759
2127,42.54,1555.892702495628
2128,42.56,1903.6414397932926
2129,42.58,2249.5091989586977
2130,42.6,2490.338176181824
2131,42.62,2545.4175721080937
2132,42.64,2393.3217977749414
2133,42.660000000000004,2086.7690597309524
2134,42.68,1726.8966243082032
2135,42.7,1406.8748781066006
2136,42.72,1172.3250157418925
2137,42.74,1026.421428805895
2138,42.76,959.7581835266616
2139,42.78,968.4308171615786
2140,42.800000000000004,1047.0402201996435
2141,42.82,1172.698525456305
2142,42.84,1307.0567920550554
2143,42.86,1417.8191383812198
2144,42.88,1488.8147094270366
2145,42.9,1510.2498070868087
2146,42.92,1472.6057957665917
2147,42.94,1378.0425160733853
2148,42.96,1255.6073913572172
2149,42.980000000000004,1158.358340476414
2150,43.0,1147.1607096485322
2151,43.02,1270.594902755795
2152,43.04,1533.3285789699544
2153,43.06,1873.7956398477363
2154,43.08,2188.6461347103523
2155,43.1,2383.856179095074
2156,43.12,2410.1999527764688
2157,43.14,2279.99923883734
2158,43.160000000000004,2056.1354432015683
2159,43.18,1812.1636183254716
2160,43.2,1602.5498068000065
2161,43.22,1457.2617230068975
2162,43.24,1384.2248123968564
2163,43.26,1373.9078237341537
2164,43.28,1404.1764453504418
2165,43.300000000000004,1446.0286507739115
2166,43.32,1473.195881980165
2167,43.34,1471.7468563908096
2168,43.36,1446.1413427471255
2169,43.38,1416.455532040528
2170,43.4,1398.1159065108188
2171,43.42,1384.9132709056719
2172,43.44,1370.9414357441622
2173,43.46,1385.1481657205327
2174,43.480000000000004,1484.2208432102623
2175,43.5,1709.4250966208708
2176,43.52,2045.550497038521
2177,43.54,2411.2725565808632
2178,43.56,2692.6157251948994
2179,43.58,2796.046156235572
2180,43.6,2693.7259056084586
2181,43.62,2439.3727635129694
2182,43.64,2131.560122324685
2183,43.660000000000004,1852.919169866389
2184,43.68,1645.8986916438225
2185,43.7,1527.5724093457072
2186,43.72,1502.6230817993383
2187,43.74,1563.6213791130083
2188,43.76,1685.9527597821948
2189,43.78,1819.2949389303656
2190,43.800000000000004,1891.948058566711
2191,43.82,1850.7351097366686
2192,43.84,1715.1299319780037
2193,43.86,1582.555923164495
2194,43.88,1572.3347799955247
2195,43.9,1756.9975214712945
2196,43.92,2128.2476301488
2197,43.94,2647.7648035097836
2198,43.96,3278.5465648635486
2199,43.980000000000004,3867.52690470335
2200,44.0,4182.741087167944
2201,44.02,4195.628844601838
2202,44.04,4103.2728862218355
2203,44.06,4062.2710825410522
2204,44.08,4013.745361703282
2205,44.1,3709.6253479729135
2206,44.12,3014.5496388205133
2207,44.14,2163.443810950355
2208,44.160000000000004,1502.1532863465775
2209,44.18,1127.9403904279613
2210,44.2,943.4128137554678
2211,44.22,864.7875200240408
2212,44.24,872.9144759636727
2213,44.26,956.5431839741124
2214,44.28,1076.083353980799
2215,44.300000000000004,1176.97639961944
2216,44.32,1226.3541780641458
2217,44.34,1241.200945283139
2218,44.36,1277.8793728395729
2219,44.38,1391.9327813375828
2220,44.4,1612.9035672425127
2221,44.42,1959.4643260974324
2222,44.44,2482.2270212934172
2223,44.46,3192.1734238219506
2224,44.480000000000004,3872.569272612115
2225,44.5,4215.620902499961
2226,44.52,4207.619031834281
2227,44.54,4096.60969930066
2228,44.56,3989.3012114212306
2229,44.58,3695.6752829753264
2230,44.6,3081.2092472397026
2231,44.62,2369.3022659399703
2232,44.64,1868.56005688296
2233,44.660000000000004,1636.8968919949375
2234,44.68,1558.9197185007906
2235,44.7,1538.992700416898
2236,44.72,1543.3965374964705
2237,44.74,1553.7963847691005
2238,44.76,1541.9420752727974
2239,44.78,1489.1834781757855
2240,44.800000000000004,1400.5648936597659
2241,44.82,1291.4815366579273
2242,44.84,1177.7912873805897
2243,44.86,1085.5932576294506
2244,44.88,1064.824341423035
2245,44.9,1177.9424606142195
2246,44.92,1453.4282331449187
2247,44.94,1836.9927663867916
2248,44.96,2198.054564867729
2249,44.980000000000004,2403.8590347656786
2250,45.0,2394.324895720243
2251,45.02,2195.33585933144
2252,45.04,1881.8721789745239
2253,45.06,1540.1622755472756
2254,45.08,1251.1970828949088
2255,45.1,1077.9578000810418
2256,45.12,1047.790641502834
2257,45.14,1144.8198082202277
2258,45.160000000000004,1318.490470562948
2259,45.18,1502.8273142579872
2260,45.2,1639.975609409374
2261,45.22,1700.5335599844614
2262,45.24,1689.301248486581
2263,45.26,1632.1851372739254
2264,45.28,1556.0275572029107
2265,45.300000000000004,1477.9826056194313
2266,45.32,1418.3864565545082
2267,45.34,1425.9177394141786
2268,45.36,1566.9794462230893
2269,45.38,1865.8356126034862
2270,45.4,2263.634422767155
2271,45.42,2643.546622938031
2272,45.44,2882.1475769861404
2273,45.46,2895.1352893437643
2274,45.480000000000004,2678.245137956858
2275,45.5,2306.4958899511325
2276,45.52,1878.2790645854905
2277,45.54,1468.2664395214042
2278,45.56,1124.653070831599
2279,45.58,880.8326513804952
2280,45.6,758.8751211236967
2281,45.62,763.4984245663672
2282,45.64,871.2761876810231
2283,45.660000000000004,1028.1316777567918
2284,45.68,1167.4747652770968
2285,45.7,1245.4579473747597
2286,45.72,1263.3896506485898
2287,45.74,1253.3238555477114
2288,45.76,1245.2271285924958
2289,45.78,1253.19833409317
2290,45.800000000000004,1299.1737389801865
2291,45.82,1440.6246801438474
2292,45.84,1743.9459171333283
2293,45.86,2218.2500182929048
2294,45.88,2786.19036365933
2295,45.9,3288.7174812335156
2296,45.92,3510.7894329178066
2297,45.94,3323.906183354367
2298,45.96,2840.772912077099
2299,45.980000000000004,2316.0421477969985
2300,46.0,1913.5700219053347
2301,46.02,1651.9037001390752
2302,46.04,1506.285305326019
2303,46.06,1468.6533074019276
2304,46.08,1523.4743971153503
2305,46.1,1626.149664316406
2306,46.12,1725.0100902051513
2307,46.14,1790.7269680722047
2308,46.160000000000004,1819.5441754437961
2309,46.18,1816.48895518483
2310,46.2,1781.0463348086687
2311,46.22,1708.5180117012305
2312,46.24,1605.264374802008
2313,46.26,1504.399783923759
2314,46.28,1470.8648830280872
2315,46.300000000000004,1582.5319839285985
2316,46.32,1877.2505922463242
2317,46.34,2311.7155489489196
2318,46.36,2784.4168909449477
2319,46.38,3164.634571549204
2320,46.4,3301.8107887731353
2321,46.42,3115.499184117833
2322,46.44,2694.4290040210963
2323,46.46,2218.8298593382324
2324,46.480000000000004,1806.8480611339387
2325,46.5,1490.1450500558296
2326,46.52,1279.530627509197
2327,46.54,1193.5580881952335
2328,46.56,1233.0659194777706
2329,46.58,1354.8646232315573
2330,46.6,1492.5429701261537
2331,46.62,1602.8748599427527
2332,46.64,1677.5220472908527
2333,46.660000000000004,1719.1690871539986
2334,46.68,1722.9606991574153
2335,46.7,1684.5910191741796
2336,46.72,1620.622383860534
2337,46.74,1569.8453201942302
2338,46.76,1580.8251685299351
2339,46.78,1703.9043179477735
2340,46.800000000000004,1968.0702682053961
2341,46.82,2344.75562984159
2342,46.84,2742.554511368946
2343,46.86,3029.667176604244
2344,46.88,3077.9853944723022
2345,46.9,2854.546433639548
2346,46.92,2464.1857317168715
2347,46.94,2056.4817160460284
2348,46.96,1724.3188159495721
2349,46.980000000000004,1502.5525429241202
2350,47.0,1406.657071155865
2351,47.02,1438.2599399472895
2352,47.04,1561.220810577347
2353,47.06,1695.8425277924337
2354,47.08,1759.6284259978977
2355,47.1,1719.0986978749168
2356,47.12,1598.4399129510243
2357,47.14,1447.1027806244056
2358,47.160000000000004,1302.9271138513332
2359,47.18,1178.900919752994
2360,47.2,1078.4098644330993
2361,47.22,1020.4563455882292
2362,47.24,1057.6808752293507
2363,47.26,1266.3448112421447
2364,47.28,1688.5495725295714
2365,47.300000000000004,2274.662119456876
2366,47.32,2892.510239568449
2367,47.34,3356.185006336882
2368,47.36,3472.200578663029
2369,47.38,3191.8611111961673
2370,47.4,2701.1697661885455
2371,47.42,2245.133643414208
2372,47.44,1921.4274445039052
2373,47.46,1700.066664600112
2374,47.480000000000004,1540.96929545193
2375,47.5,1436.8780524673202
2376,47.52,1391.431927015052
2377,47.54,1393.446058722486
2378,47.56,1413.4349799839074
2379,47.58,1419.0035592583652
2380,47.6,1391.8293107779352
2381,47.62,1329.8910591915437
2382,47.64,1240.5868723389217
2383,47.660000000000004,1137.959862307563
2384,47.68,1043.8294463808252
2385,47.7,986.763757496693
2386,47.72,1000.0648976837476
2387,47.74,1126.226675890231
2388,47.76,1405.1259396813393
2389,47.78,1827.9677137751194
2390,47.800000000000004,2310.3158931415214
2391,47.82,2718.8349622967103
2392,47.84,2917.67845352613
2393,47.86,2833.7048402279283
2394,47.88,2515.179098307167
2395,47.9,2095.536146239988
2396,47.92,1699.4496286288122
2397,47.94,1399.4158971673087
2398,47.96,1222.5566700737372
2399,47.980000000000004,1169.737734961133
2400,48.0,1225.6269344655318
2401,48.02,1352.9762775098297
2402,48.04,1497.3878966838233
2403,48.06,1610.2860732816584
2404,48.08,1666.644150806544
2405,48.1,1665.2050484329977
2406,48.120000000000005,1618.1879893922423
2407,48.14,1543.295839155038
2408,48.160000000000004,1455.1787825663494
2409,48.18,1361.4264387897626
2410,48.2,1281.140502256456
2411,48.22,1263.861238721182
2412,48.24,1373.4167794550044
2413,48.26,1642.4976931619358
2414,48.28,2033.2275875559487
2415,48.300000000000004,2437.284444428319
2416,48.32,2719.406428645789
2417,48.34,2781.1246922245177
2418,48.36,2612.020052239557
2419,48.38,2287.291108572893
2420,48.4,1909.4977633641886
2421,48.42,1559.926582463647
2422,48.44,1295.6415500274138
2423,48.46,1153.8814051622585
2424,48.480000000000004,1141.083118972465
2425,48.5,1226.5941810577615
2426,48.52,1354.4632238127003
2427,48.54,1466.9613197751846
2428,48.56,1525.9369585354787
2429,48.58,1522.0932689271808
2430,48.6,1468.6203613897464
2431,48.620000000000005,1385.7440051443978
2432,48.64,1290.088017945647
2433,48.660000000000004,1195.086617326885
2434,48.68,1120.5541932400513
2435,48.7,1105.1220067137322
2436,48.72,1205.1671244709673
2437,48.74,1463.3765122721156
2438,48.76,1860.9126155611825
2439,48.78,2299.1576391289414
2440,48.800000000000004,2635.2690456381333
2441,48.82,2748.6996739800447
2442,48.84,2606.6293692358313
2443,48.86,2280.9998056931695
2444,48.88,1888.9729654197718
2445,48.9,1525.2049696482804
2446,48.92,1249.0217080405437
2447,48.94,1094.9387839518274
2448,48.96,1070.9699502210035
2449,48.980000000000004,1152.4915164607958
2450,49.0,1288.7756333518635
2451,49.02,1427.3839858296028
2452,49.04,1533.9170231092123
2453,49.06,1588.664849634058
2454,49.08,1583.5306502100425
2455,49.1,1531.055821717933
2456,49.120000000000005,1460.3929868319717
2457,49.14,1396.4189561968712
2458,49.160000000000004,1350.47569135188
2459,49.18,1334.2501525298514
2460,49.2,1380.763009435128
2461,49.22,1546.0687998307146
2462,49.24,1866.4976804181422
2463,49.26,2302.415506916819
2464,49.28,2736.7980451885783
2465,49.300000000000004,3021.438679699264
2466,49.32,3045.9868119922853
2467,49.34,2821.9792022208276
2468,49.36,2475.8599674750403
2469,49.38,2127.67267145305
2470,49.4,1824.1788558493865
2471,49.42,1581.3720945538637
2472,49.44,1423.7976779686605
2473,49.46,1368.2109245923982
2474,49.480000000000004,1397.4897073595675
2475,49.5,1473.1073358409442
2476,49.52,1566.9983877531772
2477,49.54,1673.0263430948146
2478,49.56,1823.3298657564299
2479,49.58,2057.667881883303
2480,49.6,2305.4765355337486
2481,49.620000000000005,2398.343379218355
2482,49.64,2257.0637367228833
2483,49.660000000000004,1968.89644494384
2484,49.68,1686.4694648582083
2485,49.7,1530.224966295878
2486,49.72,1568.060776209388
2487,49.74,1804.1546316735482
2488,49.76,2158.562096298392
2489,49.78,2488.96077885592
2490,49.800000000000004,2658.768699129407
2491,49.82,2607.035390223372
2492,49.84,2371.328748479743
2493,49.86,2045.1514294705773
2494,49.88,1717.2935675436695
2495,49.9,1447.8963005273704
2496,49.92,1273.0880686532755
2497,49.94,1208.2337631826845
2498,49.96,1246.7042407368453
2499,49.980000000000004,1361.8993143862017
2500,50.0,1509.8071452285574
2501,50.02,1639.8063232482718
2502,50.04,1718.45949504684
2503,50.06,1738.9344499587578
2504,50.08,1710.5115794483356
2505,50.1,1648.7106069014244
2506,50.120000000000005,1569.3251832685116
2507,50.14,1487.8634122588871
2508,50.160000000000004,1425.6190935217558
2509,50.18,1416.6235554869127
2510,50.2,1507.0956431548877
2511,50.22,1735.5864702376787
2512,50.24,2097.2131387547747
2513,50.26,2525.444845135072
2514,50.28,2905.607219228471
2515,50.300000000000004,3103.914341276164
2516,50.32,3033.668613160955
2517,50.34,2733.5207322047236
2518,50.36,2341.722077622972
2519,50.38,1981.6287220986037
2520,50.4,1706.7372287566097
2521,50.42,1531.9596017119227
2522,50.44,1465.162307866282
2523,50.46,1502.5831199553636
2524,50.480000000000004,1614.6434749890423
2525,50.5,1750.8279288931087
2526,50.52,1860.7403772952553
2527,50.54,1911.5798300340068
2528,50.56,1894.548153043887
2529,50.58,1821.7720413660206
2530,50.6,1717.0925851717147
2531,50.620000000000005,1606.39724328379
2532,50.64,1513.0902825039616
2533,50.660000000000004,1464.2596095373283
2534,50.68,1503.4852360176574
2535,50.7,1684.5383242933246
2536,50.72,2029.1881575298773
2537,50.74,2493.6133664571053
2538,50.76,2973.746181423493
2539,50.78,3312.1682857789983
2540,50.800000000000004,3347.9015890763567
2541,50.82,3049.6451360238866
2542,50.84,2566.652750090312
2543,50.86,2091.19925414606
2544,50.88,1716.3602823017764
2545,50.9,1448.1933250341522
2546,50.92,1288.2663377716237
2547,50.94,1253.2739822859828
2548,50.96,1334.7971616148118
2549,50.980000000000004,1479.2454990173535
2550,51.0,1613.9642722151639
2551,51.02,1689.1905131983904
2552,51.04,1697.8164501758502
2553,51.06,1659.4369546497414
2554,51.08,1594.5257646830419
2555,51.1,1515.5966009378808
2556,51.120000000000005,1434.8539270956448
2557,51.14,1377.0910614692668
2558,51.160000000000004,1391.5889796774632
2559,51.18,1545.107441499918
2560,51.2,1876.9914917389244
2561,51.22,2353.4328185429836
2562,51.24,2869.2645259700766
2563,51.26,3263.6925818104137
2564,51.28,3357.9687719731496
2565,51.300000000000004,3087.0666084463296
2566,51.32,2584.4316820869494
2567,51.34,2055.306051817849
2568,51.36,1618.8139819101389
2569,51.38,1309.100554452768
2570,51.4,1142.7549325188775
2571,51.42,1129.9340843005416
2572,51.44,1247.87725561512
2573,51.46,1438.909837906399
2574,51.480000000000004,1632.5182220319757
2575,51.5,1766.5080458731873
2576,51.52,1811.0770589045696
2577,51.54,1778.9706800578388
2578,51.56,1703.2666804229477
2579,51.58,1610.6863959396064
2580,51.6,1517.6087081807507
2581,51.620000000000005,1445.3623757794717
2582,51.64,1437.6072828365184
2583,51.660000000000004,1558.1753456544507
2584,51.68,1853.0063295737004
2585,51.7,2306.614437435368
2586,51.72,2832.202770625713
2587,51.74,3269.2683341506654
2588,51.76,3415.2712392180765
2589,51.78,3172.8537335181218
2590,51.800000000000004,2664.8792735649695
2591,51.82,2110.4644150633053
2592,51.84,1637.809091894275
2593,51.86,1277.7802480867351
2594,51.88,1046.0676461043472
2595,51.9,963.8587487258242
2596,51.92,1024.7094405991
2597,51.94,1173.6899615850195
2598,51.96,1335.8070420292902
2599,51.980000000000004,1455.8944344828685
2600,52.0,1508.083105654563
2601,52.02,1492.9397742359047
2602,52.04,1429.2384545538737
2603,52.06,1335.185745594679
2604,52.08,1226.3120847960104
2605,52.1,1137.1795771083328
2606,52.120000000000005,1134.6318915803306
2607,52.14,1297.1513268219567
2608,52.160000000000004,1655.2226178424276
2609,52.18,2135.915234882636
2610,52.2,2585.6273964592538
2611,52.22,2853.7784366952037
2612,52.24,2859.9364092897476
2613,52.26,2624.4606246531166
2614,52.28,2247.3155292123124
2615,52.300000000000004,1839.4007340329547
2616,52.32,1479.38455881004
2617,52.34,1219.218330006208
2618,52.36,1093.8766179539837
2619,52.38,1113.7500048731558
2620,52.4,1251.7265204499404
2621,52.42,1446.6842780366796
2622,52.44,1627.9681983106452
2623,52.46,1742.9849924801351
2624,52.480000000000004,1771.7740389270919
2625,52.5,1724.9599867405527
2626,52.52,1630.8843861589235
2627,52.54,1521.4862608959068
2628,52.56,1427.2965656137599
2629,52.58,1385.1989358626115
2630,52.6,1445.7038631127289
2631,52.620000000000005,1656.8421639866897
2632,52.64,2021.0020159294436
2633,52.660000000000004,2469.432625342578
2634,52.68,2883.349396016919
2635,52.7,3122.6188409508686
2636,52.72,3077.599343680216
2637,52.74,2761.166575159819
2638,52.76,2308.67400549258
2639,52.78,1857.0010804313563
2640,52.800000000000004,1478.749985674296
2641,52.82,1217.148959864187
2642,52.84,1105.9614008735366
2643,52.86,1143.0427332001798
2644,52.88,1278.2999708799862
2645,52.9,1440.8896055129908
2646,52.92,1572.991235211204
2647,52.94,1642.6712566535002
2648,52.96,1643.3236918195307
2649,52.980000000000004,1588.7391910189633
2650,53.0,1502.547961813092
2651,53.02,1411.5138091346334
2652,53.04,1350.1737889936876
2653,53.06,1370.4800533577763
2654,53.08,1537.0500169132574
2655,53.1,1883.5712386970797
2656,53.120000000000005,2365.8455837095953
2657,53.14,2869.062505502269
2658,53.160000000000004,3231.5162449794084
2659,53.18,3286.9724735085483
2660,53.2,2991.855418101195
2661,53.22,2493.954675001086
2662,53.24,1997.3652649452197
2663,53.26,1612.3567760870617
2664,53.28,1362.357165076383
2665,53.300000000000004,1247.0538990052562
2666,53.32,1258.1589333623124
2667,53.34,1367.7060343020958
2668,53.36,1524.3074071745248
2669,53.38,1666.8666118208896
2670,53.4,1751.051367990236
2671,53.42,1766.5610839252715
2672,53.44,1729.2121181634843
2673,53.46,1661.8069244500039
2674,53.480000000000004,1583.755742159409
2675,53.5,1516.1579750785058
2676,53.52,1499.9580619276744
2677,53.54,1600.0525977259697
2678,53.56,1865.0151316120405
2679,53.58,2281.1650338528184
2680,53.6,2772.5348919028
2681,53.620000000000005,3205.5425382573194
2682,53.64,3396.6042585562795
2683,53.660000000000004,3227.867842536539
2684,53.68,2781.8156343243013
2685,53.7,2266.232268988016
2686,53.72,1825.355004407282
2687,53.74,1493.1437480982381
2688,53.76,1270.0153012464577
2689,53.78,1171.6834236430843
2690,53.800000000000004,1211.3195297015359
2691,53.82,1360.5600120237168
2692,53.84,1545.450122812236
2693,53.86,1688.9072062017692
2694,53.88,1755.1437854478706
2695,53.9,1751.9494278501506
2696,53.92,1700.7832041522745
2697,53.94,1619.2747191874319
2698,53.96,1529.9750055743016
2699,53.980000000000004,1473.9624246065368
2700,54.0,1512.8380124564994
2701,54.02,1707.1911176986268
2702,54.04,2068.2279155423116
2703,54.06,2526.531216154564
2704,54.08,2944.351522380906
2705,54.1,3149.6101574874488
2706,54.120000000000005,3028.0989499113075
2707,54.14,2630.5453465923943
2708,54.160000000000004,2128.3700405768072
2709,54.18,1669.848117108454
2710,54.2,1329.5517295098853
2711,54.22,1142.8627502618203
2712,54.24,1119.612396516478
2713,54.26,1228.3438846752294
2714,54.28,1400.1684437042995
2715,54.300000000000004,1564.40907047178
2716,54.32,1676.2206868609255
2717,54.34,1715.1548120991781
2718,54.36,1680.698254646974
2719,54.38,1594.7156091682969
2720,54.4,1492.9348736140344
2721,54.42,1405.350991566674
2722,54.44,1346.3765283091666
2723,54.46,1332.7074234683196
2724,54.480000000000004,1409.3974380673942
2725,54.5,1631.4968408706188
2726,54.52,2001.2901056102673
2727,54.54,2437.3382035679315
2728,54.56,2807.468235054098
2729,54.58,2978.918921683283
2730,54.6,2877.54470496723
2731,54.620000000000005,2544.4744693826437
2732,54.64,2106.862195018063
2733,54.660000000000004,1682.8959625324521
2734,54.68,1342.2949644318205
2735,54.7,1127.8379628079874
2736,54.72,1065.1130812463855
2737,54.74,1145.9044872103555
2738,54.76,1318.4610410902442
2739,54.78,1505.1015892071866
2740,54.800000000000004,1634.5632403709142
2741,54.82,1675.1656739639711
2742,54.84,1644.5534960998043
2743,54.86,1577.5346635108936
2744,54.88,1494.3364188568846
2745,54.9,1408.514466954064
2746,54.92,1346.4471587877322
2747,54.94,1353.2681709837636
2748,54.96,1489.302208531123
2749,54.980000000000004,1796.944809835175
2750,55.0,2250.669050473368
2751,55.02,2748.242390091057
2752,55.04,3135.815588859039
2753,55.06,3254.431029352848
2754,55.08,3042.5985102284253
2755,55.1,2602.5259572166256
2756,55.120000000000005,2106.7593606790524
2757,55.14,1668.7271525379313
2758,55.160000000000004,1335.0629177841768
2759,55.18,1136.72800725413
2760,55.2,1096.9332218415877
2761,55.22,1198.8382582599438
2762,55.24,1376.4934965937655
2763,55.26,1555.5067223422068
2764,55.28,1689.1611765275632
2765,55.300000000000004,1757.3648689762128
2766,55.32,1754.6758762487998
2767,55.34,1688.5269121369145
2768,55.36,1583.6847570957234
2769,55.38,1480.2681676025904
2770,55.4,1426.4845430023784
2771,55.42,1478.775837291125
2772,55.44,1696.6766925833276
2773,55.46,2106.8606129862815
2774,55.480000000000004,2676.6804534043777
2775,55.5,3298.4979728016074
2776,55.52,3738.1440670635434
2777,55.54,3722.6134443412857
2778,55.56,3225.059174617245
2779,55.58,2529.604653624196
2780,55.6,1928.7360747671073
2781,55.620000000000005,1509.0542161943968
2782,55.64,1244.4114082496835
2783,55.660000000000004,1125.5669294723273
2784,55.68,1155.405363307006
2785,55.7,1299.8858240279035
2786,55.72,1483.6265496882118
2787,55.74,1625.4130159726863
2788,55.76,1676.5165175286618
2789,55.78,1636.2585103633746
2790,55.800000000000004,1541.1169010374258
2791,55.82,1435.7033515805429
2792,55.84,1346.2089294017985
2793,55.86,1283.108496859001
2794,55.88,1269.6296622610698
2795,55.9,1363.728685420147
2796,55.92,1635.5683906031945
2797,55.94,2098.767869575715
2798,55.96,2677.0198292430073
2799,55.980000000000004,3223.487784334602
2800,56.0,3528.911115064393
2801,56.02,3421.8482035932875
2802,56.04,2955.851865832949
2803,56.06,2376.173158942109
2804,56.08,1878.3561241979864
2805,56.1,1511.7970479118785
2806,56.120000000000005,1274.3715091398276
2807,56.14,1184.0937738106804
2808,56.160000000000004,1249.1274642401813
2809,56.18,1422.3252108755437
2810,56.2,1617.9782540332158
2811,56.22,1763.4069903978761
2812,56.24,1826.802500650191
2813,56.26,1811.298165497063
2814,56.28,1738.373400544907
2815,56.300000000000004,1634.163449794637
2816,56.32,1518.468596775253
2817,56.34,1406.796985538796
2818,56.36,1327.1340794790083
2819,56.38,1334.7438738439316
2820,56.4,1503.704441633626
2821,56.42,1874.0590294381498
2822,56.44,2399.700766255476
2823,56.46,2956.8543607547895
2824,56.480000000000004,3360.194426546349
2825,56.5,3411.455205619809
2826,56.52,3062.462750648647
2827,56.54,2487.9731431110836
2828,56.56,1911.4293742157752
2829,56.58,1442.2423613727665
2830,56.6,1106.7519953287274
2831,56.620000000000005,921.1782808956227
2832,56.64,891.707330571482
2833,56.660000000000004,991.7216417275143
2834,56.68,1163.0729383853586
2835,56.7,1339.8259603461631
2836,56.72,1480.738612474722
2837,56.74,1582.1074354490056
2838,56.76,1655.083926474959
2839,56.78,1696.8717570067938
2840,56.800000000000004,1692.8651660711912
2841,56.82,1640.2830854546855
2842,56.84,1560.47062480648
2843,56.86,1499.8959891937393
2844,56.88,1530.2179286247465
2845,56.9,1727.31399459008
2846,56.92,2117.819386642356
2847,56.94,2647.0662367260556
2848,56.96,3184.605777102876
2849,56.980000000000004,3518.991056009808
2850,57.0,3446.206427216423
2851,57.02,2976.9327116990125
2852,57.04,2351.300133503672
2853,57.06,1796.6696641736655
2854,57.08,1387.8412437050126
2855,57.1,1124.138867475117
2856,57.120000000000005,1012.2376308338364
2857,57.14,1058.1220813680786
2858,57.160000000000004,1231.2573696562317
2859,57.18,1459.450550338846
2860,57.2,1658.0822855331996
2861,57.22,1768.1180773863962
2862,57.24,1774.594441408488
2863,57.26,1697.8778041863975
2864,57.28,1576.6554894704282
2865,57.300000000000004,1452.1051337232002
2866,57.32,1353.516442648424
2867,57.34,1295.8095925605644
2868,57.36,1300.0263871685997
2869,57.38,1421.0622890479522
2870,57.4,1726.2192925234026
2871,57.42,2219.075529648253
2872,57.44,2801.811707709131
2873,57.46,3294.713574359196
2874,57.480000000000004,3483.272486355997
2875,57.5,3259.1762246745434
2876,57.52,2741.7492346998715
2877,57.54,2160.2884733987585
2878,57.56,1659.3039402853674
2879,57.58,1283.452016768041
2880,57.6,1057.3673472986793
2881,57.620000000000005,999.9409383719518
2882,57.64,1090.9475473990456
2883,57.660000000000004,1270.945199995897
2884,57.68,1470.975345259448
2885,57.7,1630.5309268566043
2886,57.72,1709.8795647266159
2887,57.74,1701.2219791977382
2888,57.76,1623.261449334961
2889,57.78,1507.356247582281
2890,57.800000000000004,1388.7993314918012
2891,57.82,1299.0430101194497
2892,57.84,1263.6165839975447
2893,57.86,1322.5323800327114
2894,57.88,1546.6438332539349
2895,57.9,1992.8424058087996
2896,57.92,2646.7279763205725
2897,57.94,3387.657284055976
2898,57.96,3941.552678626145
2899,57.980000000000004,3991.9856369400677
2900,58.0,3484.9160767145413
2901,58.02,2719.0275070030816
2902,58.04,2040.1997939814232
2903,58.06,1564.4885352093902
2904,58.08,1250.9973325229969
2905,58.1,1076.5939331491468
2906,58.120000000000005,1054.6645786905117
2907,58.14,1169.0579715287963
2908,58.160000000000004,1353.448673157565
2909,58.18,1530.9058547362038
2910,58.2,1651.3755163632318
2911,58.22,1696.943340253459
2912,58.24,1673.1628115875
2913,58.26,1599.3088359298545
2914,58.28,1502.5673938769637
2915,58.300000000000004,1411.8997439101586
2916,58.32,1347.6333523208696
2917,58.34,1328.1585525794799
2918,58.36,1397.7424055338797
2919,58.38,1628.9261798603538
2920,58.4,2070.5804777940502
2921,58.42,2708.030862848382
2922,58.44,3429.1759952214866
2923,58.46,3959.803622034691
2924,58.480000000000004,3982.252486405813
2925,58.5,3452.949947645377
2926,58.52,2683.3415828733255
2927,58.54,2026.0323255479573
2928,58.56,1597.8411973713607
2929,58.58,1351.0707820415146
2930,58.6,1246.8958644829033
2931,58.620000000000005,1277.5788960805555
2932,58.64,1411.5522897445794
2933,58.660000000000004,1581.9135641492014
2934,58.68,1720.850286937224
2935,58.7,1789.9431732977705
2936,58.72,1783.5744184816335
2937,58.74,1717.7854834034388
2938,58.76,1616.4283165975353
2939,58.78,1499.3920575789693
2940,58.800000000000004,1383.6813135980046
2941,58.82,1289.9983216864662
2942,58.84,1244.3409893264338
2943,58.86,1288.2305832151499
2944,58.88,1484.8047461758647
2945,58.9,1881.6541625096374
2946,58.92,2462.3492953175028
2947,58.94,3127.8761003860445
2948,58.96,3658.6532417859958
2949,58.980000000000004,3762.4431269165166
2950,59.0,3341.142017162297
2951,59.02,2637.904903704465
2952,59.04,1979.9041162309663
2953,59.06,1500.9239511018702
2954,59.08,1185.5105311123843
2955,59.1,1021.9092910192493
2956,59.120000000000005,1021.9173842431744
2957,59.14,1160.1730513988148
2958,59.160000000000004,1362.0096202949373
2959,59.18,1547.8017264580817
2960,59.2,1669.432331422615
2961,59.22,1714.811919463768
2962,59.24,1694.055292943521
2963,59.26,1626.6240228947934
2964,59.28,1533.8804854533762
2965,59.300000000000004,1432.931632919221
2966,59.32,1339.9260376724658
2967,59.34,1281.819940549111
2968,59.36,1303.8951407041886
2969,59.38,1467.252319564362
2970,59.4,1824.5581141106968
2971,59.42,2386.5387273711203
2972,59.44,3098.2430533488055
2973,59.46,3759.775706255655
2974,59.480000000000004,4011.821324871831
2975,59.5,3646.2102850355527
2976,59.52,2891.9657127560654
2977,59.54,2168.4897847194284
2978,59.56,1677.1524469316698
2979,59.58,1383.8833868426057
2980,59.6,1231.8319220872445
2981,59.620000000000005,1221.475422383889
2982,59.64,1351.4042521843207
2983,59.660000000000004,1571.2902447380613
2984,59.68,1796.4420903834996
2985,59.7,1951.5303926925924
2986,59.72,2001.0319484701922
2987,59.74,1951.0522777275633
2988,59.76,1833.3966708748642
2989,59.78,1684.1173853713894
2990,59.800000000000004,1530.857204069191
2991,59.82,1401.5778756508282
2992,59.84,1344.370479177738
2993,59.86,1431.4422375091233
2994,59.88,1728.132459933013
2995,59.9,2245.9854656353095
2996,59.92,2933.6849898317523
2997,59.94,3641.589803061569
2998,59.96,4069.239117582133
2999,59.980000000000004,3946.5609510443837
3000,60.0,3326.909153393255
3001,60.02,2550.611195382992
3002,60.04,1908.2443090450556
3003,60.06,1451.5336621658812
3004,60.08,1127.724975695768
3005,60.1,942.4881811070029
3006,60.120000000000005,935.7873941159359
3007,60.14,1089.7603489729695
3008,60.160000000000004,1316.3712261403182
3009,60.18,1517.3395200765378
3010,60.2,1632.6480481177105
3011,60.22,1648.877401326083
3012,60.24,1586.536582366766
3013,60.26,1477.875283676433
3014,60.28,1354.4700008275697
3015,60.300000000000004,1250.6741009431598
3016,60.32,1204.2755684928106
3017,60.34,1261.4227400780032
3018,60.36,1484.7051215137963
3019,60.38,1920.0105696394858
3020,60.4,2554.6551347977775
3021,60.42,3291.8830625255478
3022,60.44,3885.236006297022
3023,60.46,3999.6168092018315
3024,60.480000000000004,3524.630277273936
3025,60.5,2741.376288828205
3026,60.52,2029.1921956040114
3027,60.54,1530.4493948861307
3028,60.56,1201.8769116156354
3029,60.58,1015.4704988175982
3030,60.6,992.4652445424503
3031,60.620000000000005,1126.1177201808423
3032,60.64,1350.3717703070045
3033,60.660000000000004,1577.83151466152
3034,60.68,1740.698825686776
3035,60.7,1806.673728082342
3036,60.72,1781.772904353633
3037,60.74,1700.4604911002111
3038,60.76,1606.158745056245
3039,60.78,1531.7073975092167
3040,60.800000000000004,1491.6104327870921
3041,60.82,1511.01323015624
3042,60.84,1669.4293210450408
3043,60.86,2100.5135263059465
3044,60.88,2861.1184017927662
3045,60.9,3706.035052015355
3046,60.92,4209.554526537268
3047,60.94,4255.721768334238
3048,60.96,4117.55985057514
3049,60.980000000000004,4046.6812029313614
3050,61.0,4066.6411708436763
3051,61.02,3968.6428036307107
3052,61.04,3439.6230564155326
3053,61.06,2542.0703455058015
3054,61.08,1755.0363155981815
3055,61.1,1363.0920534881348
3056,61.120000000000005,1269.199318918018
3057,61.14,1290.6854661716259
3058,61.160000000000004,1327.227089462359
3059,61.18,1335.8440072047624
3060,61.2,1279.1228490303781
3061,61.22,1132.4782625697235
3062,61.24,913.7017851551755
3063,61.26,679.8526109121688
3064,61.28,499.7124386425034
3065,61.300000000000004,442.33821516511125
3066,61.32,586.0357708299215
3067,61.34,992.7255725706001
3068,61.36,1629.6960201955287
3069,61.38,2349.252431367004
3070,61.4,2966.0721179542998
3071,61.42,3301.601690042605
3072,61.44,3226.162795808747
3073,61.46,2783.6747325803763
3074,61.480000000000004,2189.9602036394076
3075,61.5,1644.770135799625
3076,61.52,1233.7718071287986
3077,61.54,989.9838159726947
3078,61.56,943.9359105305489
3079,61.58,1100.0088037811538
3080,61.6,1401.0386307365031
3081,61.620000000000005,1738.3257039982398
3082,61.64,2007.0717564430774
3083,61.660000000000004,2153.4490603359595
3084,61.68,2171.265954095821
3085,61.7,2076.5112178389154
3086,61.72,1902.037037002642
3087,61.74,1699.5211795494984
3088,61.76,1528.994293660433
3089,61.78,1452.9485892650612
3090,61.800000000000004,1538.4501572374193
3091,61.82,1837.1972916126774
3092,61.84,2355.9379026913944
3093,61.86,3046.0512161485753
3094,61.88,3727.403528144857
3095,61.9,4030.077657100706
3096,61.92,3680.175008854774
3097,61.940000000000005,2858.8921306161214
3098,61.96,2005.7435473390847
3099,61.980000000000004,1365.5520007559116
3100,62.0,938.3531486975195
3101,62.02,695.3076708221429
3102,62.04,653.2423787505086
3103,62.06,802.7035400992128
3104,62.08,1065.5664487410306
3105,62.1,1329.051657583926
3106,62.120000000000005,1502.1476223535851
3107,62.14,1550.265519358236
3108,62.160000000000004,1490.699748838358
3109,62.18,1363.5903026900978
3110,62.2,1205.5279686901729
3111,62.22,1046.7044454765935
3112,62.24,933.0525363177695
3113,62.26,942.8807654733903
3114,62.28,1165.004216348302
3115,62.300000000000004,1630.4941635875277
3116,62.32,2258.7104856602778
3117,62.34,2879.3234360919223
3118,62.36,3278.922761026023
3119,62.38,3280.8232753117345
3120,62.4,2894.792626236211
3121,62.42,2340.3220740855695
3122,62.440000000000005,1864.24355554122
3123,62.46,1597.8053398897778
3124,62.480000000000004,1544.5246541301442
3125,62.5,1603.0913509258803
3126,62.52,1641.0217302107271
3127,62.54,1598.7579231537336
3128,62.56,1504.4135369368653
3129,62.58,1403.998489244183
3130,62.6,1311.1268869793546
3131,62.620000000000005,1217.705767415529
3132,62.64,1126.9470117698881
3133,62.660000000000004,1055.7230192031798
3134,62.68,1014.2290976270563
3135,62.7,1009.4942077169065
3136,62.72,1070.7008765400503
3137,62.74,1259.3030481786966
3138,62.76,1634.8252023999166
3139,62.78,2192.0773691230384
3140,62.800000000000004,2846.509774030836
3141,62.82,3435.5357510229187
3142,62.84,3703.7097157496733
3143,62.86,3466.2036541834923
3144,62.88,2847.1466235998155
3145,62.9,2169.667052124887
3146,62.92,1640.8837901909226
3147,62.940000000000005,1285.0442190833276
3148,62.96,1078.2104767970334
3149,62.980000000000004,1017.0625136243749
3150,63.0,1089.8628722990575
3151,63.02,1246.73228682217
3152,63.04,1414.2781097384645
3153,63.06,1530.6076525212243
3154,63.08,1563.4106291050143
3155,63.1,1504.481818375159
3156,63.120000000000005,1366.7168752982411
3157,63.14,1192.9977588938575
3158,63.160000000000004,1048.781761285386
3159,63.18,996.5652246455095
3160,63.2,1082.5028236674582
3161,63.22,1338.9387982753833
3162,63.24,1778.0534732793467
3163,63.26,2382.6306493379066
3164,63.28,3100.3974868526075
3165,63.300000000000004,3770.888054220509
3166,63.32,4079.181727682537
3167,63.34,3796.203266430221
3168,63.36,3081.9065642246223
3169,63.38,2337.6840914800123
3170,63.4,1803.4525783601327
3171,63.42,1472.6768307603322
3172,63.440000000000005,1285.256029460681
3173,63.46,1229.559305267521
3174,63.480000000000004,1299.9116108336068
3175,63.5,1450.712952196676
3176,63.52,1607.7203354832957
3177,63.54,1708.9586652211328
3178,63.56,1732.6213102638599
3179,63.58,1692.9092435171606
3180,63.6,1613.1875614692296
3181,63.620000000000005,1507.7071291927564
3182,63.64,1391.7976143527508
3183,63.660000000000004,1298.2850502285003
3184,63.68,1281.1477519984255
3185,63.7,1407.5315998522933
3186,63.72,1721.6829287433093
3187,63.74,2197.3552013302074
3188,63.76,2737.711321978599
3189,63.78,3195.3801731451144
3190,63.800000000000004,3386.2239177511156
3191,63.82,3202.327854674255
3192,63.84,2746.8374953022553
3193,63.86,2248.24849723017
3194,63.88,1857.4547614833486
3195,63.9,1599.7597598617886
3196,63.92,1462.24161657904
3197,63.940000000000005,1451.0285199615598
3198,63.96,1567.1722437547394
3199,63.980000000000004,1761.263887744306
3200,64.0,1932.953322816299
3201,64.02,1976.5374147526306
3202,64.04,1832.3147407169295
3203,64.06,1515.8920193046315
3204,64.08,1117.6817360879013
3205,64.1,762.0063618406581
3206,64.12,538.7481769503603
3207,64.14,467.81410227132994
3208,64.16,536.3846367909923
3209,64.18,767.6182069746824
3210,64.2,1223.4834049123822
3211,64.22,1928.8672617486047
3212,64.24,2817.4346180006296
3213,64.26,3674.6092299951024
3214,64.28,4184.115733203781
3215,64.3,4251.833194335539
3216,64.32000000000001,4124.275774707514
3217,64.34,3987.3118552532424
3218,64.36,3711.9503022942927
3219,64.38,3192.911053366346
3220,64.4,2641.8980118066906
3221,64.42,2321.322766682344
3222,64.44,2254.0369166692735
3223,64.46000000000001,2310.0303120210747
3224,64.48,2375.4454668204485
3225,64.5,2389.0519770353294
3226,64.52,2308.1263663869286
3227,64.54,2103.0860458540183
3228,64.56,1793.3017703830735
3229,64.58,1453.1357597313272
3230,64.6,1161.3956077559772
3231,64.62,962.5615048551196
3232,64.64,892.3724554088132
3233,64.66,1018.715918154481
3234,64.68,1414.6173248141247
3235,64.7,2110.5846066972713
3236,64.72,3023.8431581895284
3237,64.74,3847.3891911276887
3238,64.76,4241.704032641838
3239,64.78,4223.819375048005
3240,64.8,4032.354247500294
3241,64.82000000000001,3679.0379785052573
3242,64.84,3049.4738398663194
3243,64.86,2294.8027160618967
3244,64.88,1723.0189823659261
3245,64.9,1452.164289395205
3246,64.92,1389.2697792057213
3247,64.94,1399.6449898585856
3248,64.96000000000001,1400.5575283139488
3249,64.98,1366.5639524463882
3250,65.0,1304.4766889873158
3251,65.02,1232.381811151507
3252,65.04,1170.9961563384618
3253,65.06,1134.2953011081993
3254,65.08,1120.1633378237511
3255,65.1,1124.621085572175
3256,65.12,1173.5557309397273
3257,65.14,1332.538172458172
3258,65.16,1665.2248784364847
3259,65.18,2177.1362741352536
3260,65.2,2833.8168785568196
3261,65.22,3539.877056780351
3262,65.24,4041.482149327606
3263,65.26,4053.046778710932
3264,65.28,3534.962438253608
3265,65.3,2755.4745054939203
3266,65.32000000000001,2053.715854500273
3267,65.34,1568.405895161988
3268,65.36,1259.0685489038879
3269,65.38,1073.3658790654856
3270,65.4,988.1339726436697
3271,65.42,977.0861073839324
3272,65.44,1001.3276193542399
3273,65.46000000000001,1018.6309187681609
3274,65.48,1000.7264734899078
3275,65.5,946.2276342025623
3276,65.52,871.5658271974715
3277,65.54,794.2841786021588
3278,65.56,725.5802196192673
3279,65.58,671.1580068680391
3280,65.6,645.2559518443909
3281,65.62,697.4741840125652
3282,65.64,910.1737432336558
3283,65.66,1324.7690752297826
3284,65.68,1864.8391809913985
3285,65.7,2363.9712652620547
3286,65.72,2662.335926646498
3287,65.74,2673.753213644245
3288,65.76,2413.8132627502487
3289,65.78,1990.597651480176
3290,65.8,1541.2828013981477
3291,65.82000000000001,1158.8702836708524
3292,65.84,879.4601430154474
3293,65.86,732.7843593888161
3294,65.88,774.9846236112652
3295,65.9,1034.6600823753454
3296,65.92,1432.6120039832442
3297,65.94,1801.994551060042
3298,65.96000000000001,2003.081793009839
3299,65.98,1997.0914006652308
3300,66.0,1824.9726328464594
3301,66.02,1564.7702825796196
3302,66.04,1310.8545125150054
3303,66.06,1145.6141616374523
3304,66.08,1108.4901319596986
3305,66.1,1213.010432571854
3306,66.12,1491.7387038603129
3307,66.14,1989.6443528887232
3308,66.16,2723.5549268206105
3309,66.18,3558.451843892539
3310,66.2,4143.826161285269
3311,66.22,4272.284934588627
3312,66.24,4053.7192741908543
3313,66.26,3551.8119101865227
3314,66.28,2790.2270077317585
3315,66.3,1986.5030127368093
3316,66.32000000000001,1373.2252214435716
3317,66.34,1016.3981315500089
3318,66.36,872.3073392097717
3319,66.38,871.8079625143102
3320,66.4,958.9107233045827
3321,66.42,1099.1301266625846
3322,66.44,1265.0880336125936
3323,66.46000000000001,1419.4647585859882
3324,66.48,1528.6473176705135
3325,66.5,1590.0929222066875
3326,66.52,1627.120817411168
3327,66.54,1654.2441059080793
3328,66.56,1668.1864013449185
3329,66.58,1691.314503556272
3330,66.6,1808.6955449735322
3331,66.62,2138.7387036770424
3332,66.64,2760.793457562694
3333,66.66,3553.330488060456
3334,66.68,4136.808305414217
3335,66.7,4223.914629380609
3336,66.72,3832.688279607236
3337,66.74,3110.99835901616
3338,66.76,2288.1175141843946
3339,66.78,1607.6640650663721
3340,66.8,1154.4985817029135
3341,66.82000000000001,900.7645015468715
3342,66.84,834.4145942436596
3343,66.86,942.1624337704011
3344,66.88,1140.139965655971
3345,66.9,1308.8934416941038
3346,66.92,1392.2218699617927
3347,66.94,1416.4509090038034
3348,66.96000000000001,1411.8846383208597
3349,66.98,1370.613997127556
3350,67.0,1303.0815685688392
3351,67.02,1254.3504606498916
3352,67.04,1237.306503406604
3353,67.06,1232.7906870024417
3354,67.08,1283.0082685016373
3355,67.1,1515.7182059640315
3356,67.12,2033.47699915195
3357,67.14,2813.23165907666
3358,67.16,3642.048812059397
3359,67.18,4170.026598405194
3360,67.2,4257.197322383026
3361,67.22,4131.48171983326
3362,67.24,3968.6109563619802
3363,67.26,3609.8384831909952
3364,67.28,2948.155058046175
3365,67.3,2231.371629148311
3366,67.32000000000001,1743.964118650357
3367,67.34,1510.3320292541055
3368,67.36,1403.741054827123
3369,67.38,1327.6921395456009
3370,67.4,1250.7659714212784
3371,67.42,1160.8045860075858
3372,67.44,1030.7252236937693
3373,67.46000000000001,823.2269547388149
3374,67.48,554.1202817795976
3375,67.5,335.9107328380128
3376,67.52,296.60166975807135
3377,67.54,374.84048845643355
3378,67.56,727.0848218630267
3379,67.58,1951.061334147273
3380,67.6,3665.054918801594
3381,67.62,4561.499520864559
3382,67.64,4424.929873047501
3383,67.66,3910.575043668756
3384,67.68,3165.924975707144
3385,67.7,2140.34290663357
3386,67.72,1171.234441281645
3387,67.74,556.9233455734467
3388,67.76,233.11177646617847
3389,67.78,61.4665918173305
3390,67.8,39.847285310740176
3391,67.82000000000001,207.85271315138803
3392,67.84,524.7020554085234
3393,67.86,881.9471487043807
3394,67.88,1182.816494608192
3395,67.9,1378.143722857803
3396,67.92,1451.203353243663
3397,67.94,1410.1923412508218
3398,67.96000000000001,1288.6632209967484
3399,67.98,1131.2427863450193
3400,68.0,972.3674463411295
3401,68.02,880.5044250832253
3402,68.04,999.7256761650026
3403,68.06,1399.0645068784058
3404,68.08,1960.9547870148124
3405,68.1,2522.6277090794742
3406,68.12,2972.953934342547
3407,68.14,3191.779900903519
3408,68.16,3073.6577458582246
3409,68.18,2653.6734282472753
3410,68.2,2095.1220259036027
3411,68.22,1550.3537776032585
3412,68.24,1104.4561633212163
3413,68.26,800.1532221833097
3414,68.28,647.2100275956825
3415,68.3,620.8886972669691
3416,68.32000000000001,673.5674842264639
3417,68.34,739.771064290823
3418,68.36,737.2395145129035
3419,68.38,602.2387195318893
3420,68.4,350.56717970655393
3421,68.42,95.47504248585446
3422,68.44,-39.733211628138726
3423,68.46000000000001,-43.469792903867585
3424,68.48,22.560979723732554
3425,68.5,197.01833563470245
3426,68.52,616.2935315384084
3427,68.54,1293.9145179503575
3428,68.56,2041.4389581489556
3429,68.58,2628.997415306952
3430,68.60000000000001,2908.4703010995077
3431,68.62,2820.501615851188
3432,68.64,2408.838086631293
3433,68.66,1814.945438097152
3434,68.68,1206.2860654696683
3435,68.7,715.6294683920554
3436,68.72,418.03556219928055
3437,68.74,323.06823738806827
3438,68.76,392.25865153852175
3439,68.78,564.7714931175283
3440,68.8,767.6679719329718
3441,68.82000000000001,930.609859958938
3442,68.84,1008.2137002042878
3443,68.86,990.3848319774636
3444,68.88,907.3671206850324
3445,68.9,821.6750958025472
3446,68.92,788.0925322017131
3447,68.94,818.8983546857473
3448,68.96000000000001,908.2928837257941
3449,68.98,1082.2648332776794
3450,69.0,1378.9552671411886
3451,69.02,1776.47872983314
3452,69.04,2176.7338308977487
3453,69.06,2456.2369686090155
3454,69.08,2525.326699603877
3455,69.10000000000001,2362.3530481410658
3456,69.12,2018.594428658361
3457,69.14,1598.578712612264
3458,69.16,1206.8959390768662
3459,69.18,894.6421438532504
3460,69.2,664.8071440086918
3461,69.22,517.4446919915467
3462,69.24,468.9809895262649
3463,69.26,528.7479587860215
3464,69.28,666.8300560451831
3465,69.3,814.9628076248665
3466,69.32000000000001,913.7780731700926
3467,69.34,960.94309151431
3468,69.36,1001.1387624181431
3469,69.38,1070.9030225212075
3470,69.4,1165.058590786423
3471,69.42,1258.8533090277854
3472,69.44,1351.2062590567846
3473,69.46000000000001,1475.8808298133415
3474,69.48,1664.3366389189357
3475,69.5,1895.7988494469992
3476,69.52,2094.685394560044
3477,69.54,2179.2264955218784
3478,69.56,2114.604497407382
3479,69.58,1933.9133714641748
3480,69.60000000000001,1707.8201411138907
3481,69.62,1492.432307840457
3482,69.64,1316.5312558713304
3483,69.66,1208.2780852249962
3484,69.68,1200.7627703868243
3485,69.7,1297.2122345516802
3486,69.72,1448.8875675478077
3487,69.74,1583.029223294419
3488,69.76,1646.5509861846756
3489,69.78,1629.2661412846007
3490,69.8,1562.605934812129
3491,69.82000000000001,1489.3736581617552
3492,69.84,1435.3245345423782
3493,69.86,1409.2883816017754
3494,69.88,1408.3027399892324
3495,69.9,1432.9156366826942
3496,69.92,1511.5963875088282
3497,69.94,1683.3384668152767
3498,69.96000000000001,1937.4891523034894
3499,69.98,2183.3935315326307
3500,70.0,2298.457483739847
3501,70.02,2211.7160976436135
3502,70.04,1946.546150939946
3503,70.06,1607.557069524548
3504,70.08,1342.3714739445822
3505,70.10000000000001,1273.107979314168
3506,70.12,1411.616094557668
3507,70.14,1658.478588755413
3508,70.16,1900.9381740172503
3509,70.18,2084.385610869256
3510,70.2,2198.175213137487
3511,70.22,2236.5897640418816
3512,70.24,2187.005021110458
3513,70.26,2042.270855537928
3514,70.28,1820.3086925291902
3515,70.3,1573.4766845896975
3516,70.32000000000001,1370.247636085124
3517,70.34,1258.1384531079475
3518,70.36,1247.2167076935236
3519,70.38,1332.2302448521389
3520,70.4,1508.6745380454777
3521,70.42,1753.5766366295804
3522,70.44,2027.297041958776
3523,70.46000000000001,2289.294260433693
3524,70.48,2466.758708634629
3525,70.5,2461.784653579159
3526,70.52,2246.8758907985216
3527,70.54,1914.003731005237
3528,70.56,1607.6714479516702
3529,70.58,1426.5234939408094
3530,70.60000000000001,1385.6224593471932
3531,70.62,1448.8601808071176
3532,70.64,1568.7786035088707
3533,70.66,1692.3822717871053
3534,70.68,1769.3270294307492
3535,70.7,1781.069830825536
3536,70.72,1747.8684137152145
3537,70.74,1699.7050516062652
3538,70.76,1647.2542889798851
3539,70.78,1583.3001334341618
3540,70.8,1509.0408426140302
3541,70.82000000000001,1453.8395737596536
3542,70.84,1463.1950982961669
3543,70.86,1565.9318153800493
3544,70.88,1750.607774177641
3545,70.9,1964.466853126683
3546,70.92,2134.2393011572963
3547,70.94,2203.2746735742858
3548,70.96000000000001,2164.638560620961
3549,70.98,2056.956908675757
3550,71.0,1929.4563604660705
3551,71.02,1818.9956630442664
3552,71.04,1744.6187253399364
3553,71.06,1707.5977111180728
3554,71.08,1697.4873847885765
3555,71.10000000000001,1696.7730686896984
3556,71.12,1694.8953074467095
3557,71.14,1707.731980581187
3558,71.16,1752.6457528931999
3559,71.18,1805.764092575205
3560,71.2,1820.175395822785
3561,71.22,1770.4865183308289
3562,71.24,1655.7527617789542
3563,71.26,1487.932215994309
3564,71.28,1306.3970674047716
3565,71.3,1182.0829443056734
3566,71.32000000000001,1179.9084152729865
3567,71.34,1318.4131982083122
3568,71.36,1552.6911483778367
3569,71.38,1815.1151700269495
3570,71.4,2089.391600555503
3571,71.42,2361.3694966846733
3572,71.44,2527.8085614669626
3573,71.46000000000001,2485.7869081226195
3574,71.48,2257.562422432766
3575,71.5,1949.0552771245973
3576,71.52,1653.125415136608
3577,71.54,1429.0211772125501
3578,71.56,1319.1220859850696
3579,71.58,1340.5438210022571
3580,71.60000000000001,1462.220279055761
3581,71.62,1604.434513457032
3582,71.64,1683.3115957024788
3583,71.66,1675.9056324996488
3584,71.68,1631.9819975759015
3585,71.7,1618.1330430530577
3586,71.72,1681.1595837727473
3587,71.74,1870.2828275679226
3588,71.76,2259.7032760066127
3589,71.78,2901.025361043423
3590,71.8,3651.4589022015007
3591,71.82000000000001,4158.948113252951
3592,71.84,4251.7758604528635
3593,71.86,4133.55475592993
3594,71.88,4054.729442115601
3595,71.9,4036.729627949364
3596,71.92,3871.0428577041803
3597,71.94,3350.2412241188667
3598,71.96000000000001,2620.9022471959647
3599,71.98,2075.034900626686
3600,72.0,1891.925414893894
3601,72.02,1962.499625379999
3602,72.04,2113.3914361092225
3603,72.06,2234.019235356846
3604,72.08,2291.077305921469
3605,72.10000000000001,2301.1382549002983
3606,72.12,2290.655810532487
3607,72.14,2273.1292495019707
3608,72.16,2243.8598366852484
3609,72.18,2182.924610234557
3610,72.2,2086.5901559965764
3611,72.22,2006.8541696540624
3612,72.24,2037.7375251900828
3613,72.26,2248.714055735341
3614,72.28,2642.664757000241
3615,72.3,3158.2242690751905
3616,72.32000000000001,3647.9757662213733
3617,72.34,3886.64752025025
3618,72.36,3722.3288785987957
3619,72.38,3233.4645096468926
3620,72.4,2661.864025031653
3621,72.42,2191.291277948078
3622,72.44,1856.6526181926133
3623,72.46000000000001,1643.4651598326293
3624,72.48,1567.9593063441037
3625,72.5,1644.0306072976553
3626,72.52,1838.3413595483094
3627,72.54,2077.1392799116243
3628,72.56,2275.6457120215637
3629,72.58,2371.588455566323
3630,72.60000000000001,2357.8690899834505
3631,72.62,2283.609956597709
3632,72.64,2217.0525065455004
3633,72.66,2210.265870258037
3634,72.68,2300.789146419251
3635,72.7,2546.06768934036
3636,72.72,3021.2409846317305
3637,72.74,3652.2865968477745
3638,72.76,4127.305303188654
3639,72.78,4239.929044674101
3640,72.8,4140.109418163022
3641,72.82000000000001,4061.7284894851973
3642,72.84,4064.926872156808
3643,72.86,4094.2135997090454
3644,72.88,4077.7686945665946
3645,72.9,3893.9210357366137
3646,72.92,3441.4724848542955
3647,72.94,2874.5201690618665
3648,72.96000000000001,2496.4865058981377
3649,72.98,2394.287316259834
3650,73.0,2421.836693951293
3651,73.02,2442.7145266992825
3652,73.04,2440.05289652019
3653,73.06,2456.091302644825
3654,73.08,2506.8627280865826
3655,73.10000000000001,2566.50019677435
3656,73.12,2602.1889353096944
3657,73.14,2616.1603550944087
3658,73.16,2681.205820927418
3659,73.18,2961.5909401510694
3660,73.2,3520.968458556518
3661,73.22,4063.8747213822908
3662,73.24,4255.344499671826
3663,73.26,4168.369193105754
3664,73.28,4067.9681710715818
3665,73.3,4057.4769096762675
3666,73.32000000000001,4088.8723098090645
3667,73.34,4105.767785157704
3668,73.36,4101.687736026494
3669,73.38,4093.973747907282
3670,73.4,4035.044928474026
3671,73.42,3777.0369958410206
3672,73.44,3285.398392419274
3673,73.46000000000001,2776.835090308015
3674,73.48,2463.08903494146
3675,73.5,2338.2558286055314
3676,73.52,2289.695992315871
3677,73.54,2251.725071351741
3678,73.56,2221.7810694199475
3679,73.58,2212.6544157638746
3680,73.60000000000001,2242.7083282539825
3681,73.62,2367.648746412597
3682,73.64,2725.2272112903856
3683,73.66,3375.551715318557
3684,73.68,4014.682089792258
3685,73.7,4266.995769379978
3686,73.72,4187.657032258438
3687,73.74,4071.4181295884896
3688,73.76,4051.988939075508
3689,73.78,4085.335135000608
3690,73.8,4106.234962568442
3691,73.82000000000001,4103.140386704633
3692,73.84,3960.5122465034797
3693,73.86,3415.9904036401463
3694,73.88,2537.5584422513452
3695,73.9,1819.6813414665583
3696,73.92,1554.3934090205123
3697,73.94,1593.3100533654308
3698,73.96000000000001,1668.8295076424315
3699,73.98,1644.4192911641805
3700,74.0,1523.5165977930262
3701,74.02,1356.3427145415344
3702,74.04,1187.3840285430936
3703,74.06,1064.4873498048278
3704,74.08,1060.5231847181237
3705,74.10000000000001,1264.3180177543798
3706,74.12,1732.2103728480188
3707,74.14,2480.009442718839
3708,74.16,3393.8327916768653
3709,74.18,4096.3395130351655
3710,74.2,4296.2615922279165
3711,74.22,4171.1375817239195
3712,74.24,3960.7280349576663
3713,74.26,3555.0927427358374
3714,74.28,2871.268948647508
3715,74.3,2163.425994139748
3716,74.32000000000001,1691.9193390354376
3717,74.34,1471.0206608585472
3718,74.36,1398.6829466098075
3719,74.38,1390.8420209046035
3720,74.4,1368.52570413512
3721,74.42,1217.033515104637
3722,74.44,853.9994025954052
3723,74.46000000000001,369.4162088295778
3724,74.48,6.387071827221092
3725,74.5,-95.57660959553012
3726,74.52,-37.06756478550409
3727,74.54,19.27565002812451
3728,74.56,69.36528146766851
3729,74.58,389.9548236568455
3730,74.60000000000001,1392.8967468294522
3731,74.62,2953.9208211086197
3732,74.64,4180.143470918528
3733,74.66,4473.319735153426
3734,74.68,4213.2294647606695
3735,74.7,4008.469815852675
3736,74.72,3822.1785203391437
3737,74.74,3043.835410969438
3738,74.76,1550.2591153291737
3739,74.78,184.06529517806632
3740,74.8,-326.708573453242
3741,74.82000000000001,-178.95048197887633
3742,74.84,44.866342299172786
3743,74.86,82.98487680674883
3744,74.88,18.90377413075634
3745,74.9,-21.564070691187343
3746,74.92,-15.74920334761103
3747,74.94,1.0685975717403764
3748,74.96000000000001,6.045650234890189
3749,74.98,2.1524370729435782
3750,75.0,-1.2473439677035
3751,75.02,18.123104534224755
3752,75.04,282.16790386406785
3753,75.06,1255.363378993639
3754,75.08,2878.485106432072
3755,75.10000000000001,4185.190547519587
3756,75.12,4500.3081712239955
3757,75.14,4209.4265567066395
3758,75.16,3775.549429178393
3759,75.18,3011.478471259274
3760,75.2,1794.1104625492364
3761,75.22,593.4092786097442
3762,75.24,-73.40760023972695
3763,75.26,-171.46384098492845
3764,75.28,-34.60620000460048
3765,75.3,78.06742312275713
3766,75.32000000000001,213.7659763097957
3767,75.34,519.1980273257933
3768,75.36,994.3987273742634
3769,75.38,1539.472957181081
3770,75.4,2082.1424369492097
3771,75.42,2577.891451587943
3772,75.44,2966.7672529676306
3773,75.46000000000001,3191.6249911425466
3774,75.48,3307.7827459088226
3775,75.5,3498.158332987311
3776,75.52,3826.22185814709
3777,75.54,4106.184799575297
3778,75.56,4181.222922305104
3779,75.58,4124.922294702952
