,Time,PPG
0,0.0,1230
1,0.02,1270
2,0.04,1338
3,0.06,1444
4,0.08,1648
5,0.1,1941
6,0.12,2270
7,0.14,2589
8,0.16,2834
9,0.18,2935
10,0.2,2846
11,0.22,2724
12,0.24,2606
13,0.26,2448
14,0.28,2277
15,0.3,2112
16,0.32,1981
17,0.34,1901
18,0.36,1840
19,0.38,1808
20,0.4,1776
21,0.42,2126
22,0.44,2416
23,0.46,2549
24,0.48,2549
25,0.5,2480
26,0.52,2410
27,0.54,2389
28,0.56,2478
29,0.58,2667
30,0.6,2887
31,0.62,3040
32,0.64,3027
33,0.66,2836
34,0.68,2589
35,0.7000000000000001,2300
36,0.72,2014
37,0.74,1774
38,0.76,1613
39,0.78,1551
40,0.8,1573
41,0.8200000000000001,1664
42,0.84,1775
43,0.86,1867
44,0.88,1922
45,0.9,1933
46,0.92,1910
47,0.9400000000000001,1843
48,0.96,1671
49,0.98,1514
50,1.0,1493
51,1.02,1673
52,1.04,1995
53,1.06,2374
54,1.08,2709
55,1.1,2919
56,1.12,2891
57,1.1400000000000001,2674
58,1.16,2398
59,1.18,2134
60,1.2,1904
61,1.22,1737
62,1.24,1653
63,1.26,1646
64,1.28,1680
65,1.3,1756
66,1.32,1801
67,1.34,1781
68,1.36,1696
69,1.3800000000000001,1600
70,1.4000000000000001,1491
71,1.42,1387
72,1.44,1280
73,1.46,1273
74,1.48,1442
75,1.5,1775
76,1.52,2190
77,1.54,2551
78,1.56,2782
79,1.58,2779
80,1.6,2576
81,1.62,2293
82,1.6400000000000001,1984
83,1.6600000000000001,1717
84,1.68,1520
85,1.7,1422
86,1.72,1414
87,1.74,1476
88,1.76,1558
89,1.78,1616
90,1.8,1647
91,1.82,1661
92,1.84,1633
93,1.86,1577
94,1.8800000000000001,1515
95,1.9000000000000001,1551
96,1.92,1577
97,1.94,1631
98,1.96,1773
99,1.98,2038
100,2.0,2343
101,2.02,2583
102,2.04,2724
103,2.06,2712
104,2.08,2526
105,2.1,2256
106,2.12,1955
107,2.14,1698
108,2.16,1506
109,2.18,1413
110,2.2,1398
111,2.22,1443
112,2.24,1500
113,2.2600000000000002,1552
114,2.2800000000000002,1563
115,2.3000000000000003,1572
116,2.32,1557
117,2.34,1490
118,2.36,1437
119,2.38,1408
120,2.4,1530
121,2.42,1891
122,2.44,2431
123,2.46,3161
124,2.48,4095
125,2.5,4095
126,2.52,4095
127,2.54,3325
128,2.56,2471
129,2.58,1792
130,2.6,1190
131,2.62,776
132,2.64,576
133,2.66,592
134,2.68,794
135,2.7,1101
136,2.72,1467
137,2.74,1840
138,2.7600000000000002,2112
139,2.7800000000000002,2179
140,2.8000000000000003,2059
141,2.82,1850
142,2.84,1399
143,2.86,901
144,2.88,651
145,2.9,778
146,2.92,1003
147,2.94,1375
148,2.96,1918
149,2.98,2395
150,3.0,2643
151,3.02,3199
152,3.04,3521
153,3.06,3216
154,3.08,2677
155,3.1,2192
156,3.12,1737
157,3.14,1323
158,3.16,966
159,3.18,709
160,3.2,574
161,3.22,528
162,3.24,576
163,3.2600000000000002,759
164,3.2800000000000002,1094
165,3.3000000000000003,1475
166,3.3200000000000003,1793
167,3.34,1996
168,3.36,2249
169,3.38,2414
170,3.4,2397
171,3.42,2210
172,3.44,1990
173,3.46,1877
174,3.48,1894
175,3.5,1970
176,3.52,2058
177,3.54,2083
178,3.56,2041
179,3.58,1922
180,3.6,1710
181,3.62,1446
182,3.64,1171
183,3.66,924
184,3.68,736
185,3.7,561
186,3.72,432
187,3.74,407
188,3.7600000000000002,457
189,3.7800000000000002,518
190,3.8000000000000003,566
191,3.8200000000000003,629
192,3.84,736
193,3.86,871
194,3.88,989
195,3.9,1095
196,3.92,1205
197,3.94,1349
198,3.96,1618
199,3.98,2011
200,4.0,2496
201,4.0200000000000005,3045
202,4.04,3595
203,4.0600000000000005,3790
204,4.08,3446
205,4.1,2990
206,4.12,2582
207,4.14,2256
208,4.16,2001
209,4.18,1861
210,4.2,1819
211,4.22,1850
212,4.24,1920
213,4.26,1974
214,4.28,1973
215,4.3,1935
216,4.32,1872
217,4.34,1802
218,4.36,1713
219,4.38,1609
220,4.4,1502
221,4.42,1398
222,4.44,1300
223,4.46,1289
224,4.48,1424
225,4.5,1729
226,4.5200000000000005,2112
227,4.54,2421
228,4.5600000000000005,2582
229,4.58,2544
230,4.6000000000000005,2349
231,4.62,2066
232,4.64,1757
233,4.66,1477
234,4.68,1306
235,4.7,1266
236,4.72,1360
237,4.74,1500
238,4.76,1616
239,4.78,1706
240,4.8,1820
241,4.82,1871
242,4.84,1904
243,4.86,1968
244,4.88,2000
245,4.9,1959
246,4.92,1855
247,4.94,1727
248,4.96,1569
249,4.98,1422
250,5.0,1387
251,5.0200000000000005,1488
252,5.04,1679
253,5.0600000000000005,1843
254,5.08,1902
255,5.1000000000000005,1822
256,5.12,1631
257,5.14,1376
258,5.16,1119
259,5.18,907
260,5.2,768
261,5.22,731
262,5.24,801
263,5.26,941
264,5.28,1113
265,5.3,1269
266,5.32,1373
267,5.34,1425
268,5.36,1438
269,5.38,1434
270,5.4,1403
271,5.42,1346
272,5.44,1286
273,5.46,1251
274,5.48,1241
275,5.5,1289
276,5.5200000000000005,1437
277,5.54,1696
278,5.5600000000000005,1979
279,5.58,2221
280,5.6000000000000005,2320
281,5.62,2276
282,5.64,2115
283,5.66,1904
284,5.68,1671
285,5.7,1485
286,5.72,1359
287,5.74,1296
288,5.76,1299
289,5.78,1296
290,5.8,1343
291,5.82,1376
292,5.84,1381
293,5.86,1371
294,5.88,1364
295,5.9,1391
296,5.92,1417
297,5.94,1449
298,5.96,1483
299,5.98,1521
300,6.0,1575
301,6.0200000000000005,1631
302,6.04,1731
303,6.0600000000000005,1858
304,6.08,1945
305,6.1000000000000005,1990
306,6.12,2000
307,6.140000000000001,1951
308,6.16,1849
309,6.18,1712
310,6.2,1562
311,6.22,1445
312,6.24,1392
313,6.26,1390
314,6.28,1408
315,6.3,1435
316,6.32,1467
317,6.34,1499
318,6.36,1491
319,6.38,1454
320,6.4,1383
321,6.42,1315
322,6.44,1247
323,6.46,1164
324,6.48,1072
325,6.5,1013
326,6.5200000000000005,1050
327,6.54,1191
328,6.5600000000000005,1343
329,6.58,1414
330,6.6000000000000005,1425
331,6.62,1416
332,6.640000000000001,1405
333,6.66,1373
334,6.68,1277
335,6.7,1147
336,6.72,1008
337,6.74,967
338,6.76,1083
339,6.78,1298
340,6.8,1527
341,6.82,1699
342,6.84,1776
343,6.86,1792
344,6.88,1789
345,6.9,1791
346,6.92,1796
347,6.94,1825
348,6.96,1875
349,6.98,1926
350,7.0,1934
351,7.0200000000000005,1938
352,7.04,1961
353,7.0600000000000005,2000
354,7.08,2032
355,7.1000000000000005,2017
356,7.12,1952
357,7.140000000000001,1857
358,7.16,1781
359,7.18,1697
360,7.2,1575
361,7.22,1443
362,7.24,1341
363,7.26,1246
364,7.28,1169
365,7.3,1115
366,7.32,1066
367,7.34,1056
368,7.36,1061
369,7.38,1087
370,7.4,1130
371,7.42,1126
372,7.44,1076
373,7.46,1018
374,7.48,991
375,7.5,1008
376,7.5200000000000005,1072
377,7.54,1168
378,7.5600000000000005,1279
379,7.58,1347
380,7.6000000000000005,1362
381,7.62,1335
382,7.640000000000001,1293
383,7.66,1165
384,7.68,941
385,7.7,654
386,7.72,330
387,7.74,82
388,7.76,0
389,7.78,0
390,7.8,0
391,7.82,82
392,7.84,369
393,7.86,737
394,7.88,1081
395,7.9,1329
396,7.92,1481
397,7.94,1587
398,7.96,1661
399,7.98,1715
400,8.0,1822
401,8.02,2033
402,8.040000000000001,2314
403,8.06,2577
404,8.08,2701
405,8.1,2671
406,8.120000000000001,2586
407,8.14,2582
408,8.16,2685
409,8.18,2787
410,8.2,2750
411,8.22,2551
412,8.24,2255
413,8.26,1985
414,8.28,1871
415,8.3,1852
416,8.32,1836
417,8.34,1806
418,8.36,1806
419,8.38,1805
420,8.4,1775
421,8.42,1767
422,8.44,1834
423,8.46,1969
424,8.48,2175
425,8.5,2457
426,8.52,2786
427,8.540000000000001,3056
428,8.56,3066
429,8.58,2831
430,8.6,2491
431,8.620000000000001,2115
432,8.64,1751
433,8.66,1460
434,8.68,1283
435,8.700000000000001,1276
436,8.72,1425
437,8.74,1622
438,8.76,1770
439,8.78,1845
440,8.8,1813
441,8.82,1710
442,8.84,1578
443,8.86,1478
444,8.88,1456
445,8.9,1486
446,8.92,1520
447,8.94,1606
448,8.96,1797
449,8.98,2149
450,9.0,2592
451,9.02,3025
452,9.040000000000001,3339
453,9.06,3327
454,9.08,2983
455,9.1,2557
456,9.120000000000001,2146
457,9.14,1801
458,9.16,1552
459,9.18,1401
460,9.200000000000001,1313
461,9.22,1307
462,9.24,1344
463,9.26,1399
464,9.28,1465
465,9.3,1535
466,9.32,1600
467,9.34,1625
468,9.36,1616
469,9.38,1600
470,9.4,1602
471,9.42,1701
472,9.44,1960
473,9.46,2341
474,9.48,2706
475,9.5,2935
476,9.52,2913
477,9.540000000000001,2674
478,9.56,2350
479,9.58,2000
480,9.6,1699
481,9.620000000000001,1485
482,9.64,1360
483,9.66,1348
484,9.68,1408
485,9.700000000000001,1520
486,9.72,1664
487,9.74,1786
488,9.76,1857
489,9.78,1873
490,9.8,1851
491,9.82,1802
492,9.84,1744
493,9.86,1687
494,9.88,1687
495,9.9,1822
496,9.92,2102
497,9.94,2423
498,9.96,2672
499,9.98,2745
500,10.0,2624
501,10.02,2367
502,10.040000000000001,2039
503,10.06,1706
504,10.08,1406
505,10.1,1229
506,10.120000000000001,1152
507,10.14,1169
508,10.16,1244
509,10.18,1335
510,10.200000000000001,1422
511,10.22,1477
512,10.24,1497
513,10.26,1498
514,10.28,1498
515,10.3,1490
516,10.32,1488
517,10.34,1535
518,10.36,1669
519,10.38,1935
520,10.4,2320
521,10.42,2723
522,10.44,3029
523,10.46,3045
524,10.48,2770
525,10.5,2414
526,10.52,2064
527,10.540000000000001,1742
528,10.56,1505
529,10.58,1360
530,10.6,1323
531,10.620000000000001,1376
532,10.64,1491
533,10.66,1617
534,10.68,1715
535,10.700000000000001,1765
536,10.72,1787
537,10.74,1766
538,10.76,1725
539,10.78,1680
540,10.8,1648
541,10.82,1703
542,10.84,1913
543,10.86,2321
544,10.88,2855
545,10.9,3464
546,10.92,3758
547,10.94,3525
548,10.96,3035
549,10.98,2590
550,11.0,2199
551,11.02,1871
552,11.040000000000001,1621
553,11.06,1504
554,11.08,1530
555,11.1,1650
556,11.120000000000001,1776
557,11.14,1876
558,11.16,1931
559,11.18,1934
560,11.200000000000001,1915
561,11.22,1882
562,11.24,1825
563,11.26,1767
564,11.28,1730
565,11.3,1819
566,11.32,2101
567,11.34,2534
568,11.36,3053
569,11.38,3513
570,11.4,3597
571,11.42,3258
572,11.44,2787
573,11.46,2384
574,11.48,2023
575,11.5,1726
576,11.52,1521
577,11.540000000000001,1454
578,11.56,1504
579,11.58,1646
580,11.6,1776
581,11.620000000000001,1857
582,11.64,1890
583,11.66,1873
584,11.68,1824
585,11.700000000000001,1755
586,11.72,1671
587,11.74,1593
588,11.76,1559
589,11.78,1673
590,11.8,1984
591,11.82,2435
592,11.84,2924
593,11.86,3319
594,11.88,3332
595,11.9,3003
596,11.92,2590
597,11.94,2167
598,11.96,1767
599,11.98,1441
600,12.0,1263
601,12.02,1211
602,12.040000000000001,1275
603,12.06,1406
604,12.08,1549
605,12.1,1645
606,12.120000000000001,1691
607,12.14,1703
608,12.16,1676
609,12.18,1609
610,12.200000000000001,1518
611,12.22,1424
612,12.24,1351
613,12.26,1407
614,12.280000000000001,1637
615,12.3,1931
616,12.32,2153
617,12.34,2161
618,12.36,1920
619,12.38,1571
620,12.4,1296
621,12.42,1019
622,12.44,615
623,12.46,128
624,12.48,0
625,12.5,0
626,12.52,467
627,12.540000000000001,1910
628,12.56,4095
629,12.58,4095
630,12.6,4095
631,12.620000000000001,4095
632,12.64,4095
633,12.66,4095
634,12.68,4095
635,12.700000000000001,4095
636,12.72,4095
637,12.74,4095
638,12.76,4095
639,12.780000000000001,4095
640,12.8,2976
641,12.82,0
642,12.84,0
643,12.86,0
644,12.88,0
645,12.9,0
646,12.92,0
647,12.94,0
648,12.96,0
649,12.98,0
650,13.0,0
651,13.02,0
652,13.040000000000001,0
653,13.06,0
654,13.08,0
655,13.1,0
656,13.120000000000001,0
657,13.14,0
658,13.16,0
659,13.18,144
660,13.200000000000001,2288
661,13.22,4095
662,13.24,4095
663,13.26,4095
664,13.280000000000001,4095
665,13.3,4095
666,13.32,4095
667,13.34,4095
668,13.36,4095
669,13.38,4095
670,13.4,4095
671,13.42,4095
672,13.44,4095
673,13.46,4095
674,13.48,4095
675,13.5,4095
676,13.52,4095
677,13.540000000000001,4095
678,13.56,4095
679,13.58,4095
680,13.6,4095
681,13.620000000000001,4095
682,13.64,4095
683,13.66,4095
684,13.68,4095
685,13.700000000000001,4095
686,13.72,4095
687,13.74,4095
688,13.76,4095
689,13.780000000000001,4095
690,13.8,4095
691,13.82,4095
692,13.84,4095
693,13.86,4095
694,13.88,4095
695,13.9,4095
696,13.92,4095
697,13.94,4095
698,13.96,4095
699,13.98,4095
700,14.0,4095
701,14.02,3264
702,14.040000000000001,2358
703,14.06,2103
704,14.08,2207
705,14.1,2471
706,14.120000000000001,2687
707,14.14,2775
708,14.16,2746
709,14.18,2640
710,14.200000000000001,2544
711,14.22,2654
712,14.24,2859
713,14.26,2999
714,14.280000000000001,3097
715,14.3,3167
716,14.32,3068
717,14.34,2818
718,14.36,2501
719,14.38,2029
720,14.4,1444
721,14.42,832
722,14.44,415
723,14.46,418
724,14.48,768
725,14.5,1253
726,14.52,1725
727,14.540000000000001,2095
728,14.56,2263
729,14.58,2278
730,14.6,2222
731,14.620000000000001,2058
732,14.64,1872
733,14.66,1747
734,14.68,1703
735,14.700000000000001,1733
736,14.72,1734
737,14.74,1692
738,14.76,1567
739,14.780000000000001,1306
740,14.8,879
741,14.82,344
742,14.84,0
743,14.86,0
744,14.88,71
745,14.9,538
746,14.92,1014
747,14.94,1361
748,14.96,1527
749,14.98,1563
750,15.0,1581
751,15.02,1719
752,15.040000000000001,1904
753,15.06,2082
754,15.08,2234
755,15.1,2275
756,15.120000000000001,2119
757,15.14,1872
758,15.16,1664
759,15.18,1783
760,15.200000000000001,2271
761,15.22,3163
762,15.24,4095
763,15.26,4095
764,15.280000000000001,4095
765,15.3,3200
766,15.32,2352
767,15.34,1872
768,15.36,1437
769,15.38,1274
770,15.4,1428
771,15.42,1600
772,15.44,1584
773,15.46,1549
774,15.48,1599
775,15.5,1599
776,15.52,1408
777,15.540000000000001,1183
778,15.56,1063
779,15.58,906
780,15.6,706
781,15.620000000000001,661
782,15.64,914
783,15.66,1455
784,15.68,2145
785,15.700000000000001,2938
786,15.72,4095
787,15.74,4095
788,15.76,4095
789,15.780000000000001,4095
790,15.8,4095
791,15.82,3638
792,15.84,2572
793,15.860000000000001,2035
794,15.88,1743
795,15.9,1615
796,15.92,1651
797,15.94,1813
798,15.96,2079
799,15.98,2361
800,16.0,2449
801,16.02,2297
802,16.04,1981
803,16.06,1663
804,16.080000000000002,1488
805,16.1,1452
806,16.12,1625
807,16.14,2047
808,16.16,2627
809,16.18,3565
810,16.2,4095
811,16.22,4095
812,16.240000000000002,4095
813,16.26,3462
814,16.28,2735
815,16.3,2313
816,16.32,1781
817,16.34,1145
818,16.36,627
819,16.38,355
820,16.4,263
821,16.42,336
822,16.44,650
823,16.46,1197
824,16.48,1875
825,16.5,2512
826,16.52,3051
827,16.54,3375
828,16.56,3454
829,16.580000000000002,3402
830,16.6,3105
831,16.62,2693
832,16.64,2640
833,16.66,2940
834,16.68,3242
835,16.7,3149
836,16.72,2740
837,16.740000000000002,2285
838,16.76,1691
839,16.78,959
840,16.8,276
841,16.82,20
842,16.84,314
843,16.86,1075
844,16.88,1872
845,16.9,2236
846,16.92,2290
847,16.94,2179
848,16.96,1910
849,16.98,1670
850,17.0,1613
851,17.02,1628
852,17.04,1535
853,17.06,1423
854,17.080000000000002,1472
855,17.1,1744
856,17.12,2105
857,17.14,2387
858,17.16,2577
859,17.18,2638
860,17.2,2572
861,17.22,2317
862,17.240000000000002,1846
863,17.26,1330
864,17.28,1003
865,17.3,773
866,17.32,541
867,17.34,394
868,17.36,511
869,17.38,826
870,17.400000000000002,1153
871,17.42,1391
872,17.44,1527
873,17.46,1622
874,17.48,1601
875,17.5,1392
876,17.52,1140
877,17.54,1139
878,17.56,1339
879,17.580000000000002,1493
880,17.6,1703
881,17.62,1938
882,17.64,2165
883,17.66,2298
884,17.68,2287
885,17.7,2057
886,17.72,1618
887,17.740000000000002,1157
888,17.76,899
889,17.78,805
890,17.8,774
891,17.82,927
892,17.84,1375
893,17.86,1867
894,17.88,2142
895,17.900000000000002,2174
896,17.92,2211
897,17.94,2287
898,17.96,2282
899,17.98,2138
900,18.0,1951
901,18.02,1849
902,18.04,1840
903,18.06,2109
904,18.080000000000002,2806
905,18.1,4095
906,18.12,4095
907,18.14,4095
908,18.16,4095
909,18.18,4095
910,18.2,4095
911,18.22,3046
912,18.240000000000002,2164
913,18.26,1648
914,18.28,1534
915,18.3,1807
916,18.32,2219
917,18.34,2624
918,18.36,2939
919,18.38,3043
920,18.400000000000002,2876
921,18.42,2624
922,18.44,2495
923,18.46,2519
924,18.48,2578
925,18.5,2688
926,18.52,3211
927,18.54,4095
928,18.56,4095
929,18.580000000000002,4095
930,18.6,4095
931,18.62,4095
932,18.64,4095
933,18.66,4095
934,18.68,4095
935,18.7,4095
936,18.72,4095
937,18.740000000000002,4095
938,18.76,4095
939,18.78,4095
940,18.8,4095
941,18.82,4095
942,18.84,4095
943,18.86,4095
944,18.88,4095
945,18.900000000000002,4095
946,18.92,4095
947,18.94,4095
948,18.96,4095
949,18.98,4095
950,19.0,4095
951,19.02,4095
952,19.04,4095
953,19.06,4095
954,19.080000000000002,4095
955,19.1,4095
956,19.12,4095
957,19.14,4095
958,19.16,4095
959,19.18,4095
960,19.2,4095
961,19.22,4095
962,19.240000000000002,4095
963,19.26,4095
964,19.28,3485
965,19.3,2217
966,19.32,1457
967,19.34,903
968,19.36,551
969,19.38,379
970,19.400000000000002,336
971,19.42,384
972,19.44,499
973,19.46,645
974,19.48,800
975,19.5,1153
976,19.52,1520
977,19.54,1864
978,19.56,2112
979,19.580000000000002,2208
980,19.6,2031
981,19.62,1570
982,19.64,949
983,19.66,431
984,19.68,208
985,19.7,304
986,19.72,598
987,19.740000000000002,961
988,19.76,1348
989,19.78,1671
990,19.8,1878
991,19.82,1926
992,19.84,1776
993,19.86,1603
994,19.88,1535
995,19.900000000000002,1584
996,19.92,1689
997,19.94,1791
998,19.96,1862
999,19.98,1982
1000,20.0,2191
1001,20.02,2444
1002,20.04,2625
1003,20.06,2559
1004,20.080000000000002,2193
1005,20.1,1547
1006,20.12,720
1007,20.14,0
1008,20.16,0
1009,20.18,0
1010,20.2,0
1011,20.22,0
1012,20.240000000000002,0
1013,20.26,0
1014,20.28,227
1015,20.3,469
1016,20.32,531
1017,20.34,423
1018,20.36,275
1019,20.38,155
1020,20.400000000000002,16
1021,20.42,0
1022,20.44,0
1023,20.46,0
1024,20.48,0
1025,20.5,213
1026,20.52,843
1027,20.54,1669
1028,20.56,2372
1029,20.580000000000002,2799
1030,20.6,2822
1031,20.62,2515
1032,20.64,2081
1033,20.66,1561
1034,20.68,1099
1035,20.7,885
1036,20.72,944
1037,20.740000000000002,1138
1038,20.76,1338
1039,20.78,1527
1040,20.8,1655
1041,20.82,1626
1042,20.84,1424
1043,20.86,1165
1044,20.88,947
1045,20.900000000000002,814
1046,20.92,772
1047,20.94,870
1048,20.96,1075
1049,20.98,1294
1050,21.0,1551
1051,21.02,1909
1052,21.04,2414
1053,21.06,2962
1054,21.080000000000002,3344
1055,21.1,3303
1056,21.12,3008
1057,21.14,2642
1058,21.16,2221
1059,21.18,1709
1060,21.2,1219
1061,21.22,911
1062,21.240000000000002,827
1063,21.26,834
1064,21.28,866
1065,21.3,979
1066,21.32,1105
1067,21.34,1136
1068,21.36,1089
1069,21.38,1039
1070,21.400000000000002,973
1071,21.42,907
1072,21.44,913
1073,21.46,994
1074,21.48,1152
1075,21.5,1339
1076,21.52,1560
1077,21.54,1856
1078,21.56,2288
1079,21.580000000000002,2800
1080,21.6,3278
1081,21.62,3345
1082,21.64,2917
1083,21.66,2352
1084,21.68,1762
1085,21.7,1239
1086,21.72,893
1087,21.740000000000002,752
1088,21.76,830
1089,21.78,1104
1090,21.8,1449
1091,21.82,1663
1092,21.84,1674
1093,21.86,1503
1094,21.88,1305
1095,21.900000000000002,1087
1096,21.92,865
1097,21.94,697
1098,21.96,624
1099,21.98,671
1100,22.0,807
1101,22.02,981
1102,22.04,1170
1103,22.06,1535
1104,22.080000000000002,2170
1105,22.1,2853
1106,22.12,3536
1107,22.14,3831
1108,22.16,3738
1109,22.18,3387
1110,22.2,2873
1111,22.22,2358
1112,22.240000000000002,1936
1113,22.26,1851
1114,22.28,2097
1115,22.3,2386
1116,22.32,2556
1117,22.34,2520
1118,22.36,2325
1119,22.38,2046
1120,22.400000000000002,1667
1121,22.42,1214
1122,22.44,863
1123,22.46,724
1124,22.48,689
1125,22.5,650
1126,22.52,606
1127,22.54,624
1128,22.56,831
1129,22.580000000000002,1279
1130,22.6,1760
1131,22.62,2145
1132,22.64,2320
1133,22.66,2206
1134,22.68,1808
1135,22.7,1252
1136,22.72,736
1137,22.740000000000002,421
1138,22.76,308
1139,22.78,436
1140,22.8,915
1141,22.82,1629
1142,22.84,2259
1143,22.86,2512
1144,22.88,2467
1145,22.900000000000002,2453
1146,22.92,2432
1147,22.94,2238
1148,22.96,2034
1149,22.98,1769
1150,23.0,1365
1151,23.02,990
1152,23.04,653
1153,23.06,370
1154,23.080000000000002,365
1155,23.1,810
1156,23.12,1662
1157,23.14,2641
1158,23.16,4082
1159,23.18,4095
1160,23.2,4095
1161,23.22,4095
1162,23.240000000000002,3033
1163,23.26,2233
1164,23.28,1573
1165,23.3,1051
1166,23.32,747
1167,23.34,651
1168,23.36,753
1169,23.38,1035
1170,23.400000000000002,1342
1171,23.42,1553
1172,23.44,1642
1173,23.46,1552
1174,23.48,1380
1175,23.5,1216
1176,23.52,1088
1177,23.54,1104
1178,23.56,1424
1179,23.580000000000002,2043
1180,23.6,2841
1181,23.62,4027
1182,23.64,4095
1183,23.66,4095
1184,23.68,3611
1185,23.7,2480
1186,23.72,1667
1187,23.740000000000002,1070
1188,23.76,721
1189,23.78,678
1190,23.8,833
1191,23.82,1137
1192,23.84,1445
1193,23.86,1680
1194,23.88,1795
1195,23.900000000000002,1699
1196,23.92,1445
1197,23.94,1159
1198,23.96,917
1199,23.98,809
1200,24.0,743
1201,24.02,728
1202,24.04,848
1203,24.060000000000002,1195
1204,24.080000000000002,1775
1205,24.1,2388
1206,24.12,2889
1207,24.14,3090
1208,24.16,2803
1209,24.18,2352
1210,24.2,1870
1211,24.22,1373
1212,24.240000000000002,944
1213,24.26,646
1214,24.28,506
1215,24.3,541
1216,24.32,723
1217,24.34,975
1218,24.36,1172
1219,24.38,1261
1220,24.400000000000002,1274
1221,24.42,1233
1222,24.44,1166
1223,24.46,1043
1224,24.48,935
1225,24.5,879
1226,24.52,914
1227,24.54,1136
1228,24.560000000000002,1545
1229,24.580000000000002,2006
1230,24.6,2387
1231,24.62,2576
1232,24.64,2519
1233,24.66,2310
1234,24.68,2023
1235,24.7,1733
1236,24.72,1470
1237,24.740000000000002,1274
1238,24.76,1185
1239,24.78,1209
1240,24.8,1303
1241,24.82,1411
1242,24.84,1547
1243,24.86,1677
1244,24.88,1766
1245,24.900000000000002,1840
1246,24.92,1885
1247,24.94,1878
1248,24.96,1807
1249,24.98,1738
1250,25.0,1711
1251,25.02,1798
1252,25.04,2067
1253,25.060000000000002,2532
1254,25.080000000000002,3243
1255,25.1,4095
1256,25.12,4095
1257,25.14,4069
1258,25.16,3232
1259,25.18,2545
1260,25.2,2013
1261,25.22,1586
1262,25.240000000000002,1339
1263,25.26,1301
1264,25.28,1418
1265,25.3,1568
1266,25.32,1680
1267,25.34,1692
1268,25.36,1616
1269,25.38,1509
1270,25.400000000000002,1409
1271,25.42,1326
1272,25.44,1258
1273,25.46,1200
1274,25.48,1228
1275,25.5,1427
1276,25.52,1815
1277,25.54,2283
1278,25.560000000000002,2675
1279,25.580000000000002,2846
1280,25.6,2721
1281,25.62,2413
1282,25.64,2030
1283,25.66,1642
1284,25.68,1299
1285,25.7,1095
1286,25.72,1066
1287,25.740000000000002,1206
1288,25.76,1424
1289,25.78,1624
1290,25.8,1763
1291,25.82,1830
1292,25.84,1856
1293,25.86,1833
1294,25.88,1761
1295,25.900000000000002,1667
1296,25.92,1581
1297,25.94,1535
1298,25.96,1622
1299,25.98,1879
1300,26.0,2287
1301,26.02,2724
1302,26.04,3140
1303,26.060000000000002,3291
1304,26.080000000000002,3063
1305,26.1,2681
1306,26.12,2294
1307,26.14,1914
1308,26.16,1602
1309,26.18,1391
1310,26.2,1314
1311,26.22,1375
1312,26.240000000000002,1517
1313,26.26,1648
1314,26.28,1734
1315,26.3,1765
1316,26.32,1753
1317,26.34,1669
1318,26.36,1543
1319,26.38,1393
1320,26.400000000000002,1301
1321,26.42,1309
1322,26.44,1488
1323,26.46,1855
1324,26.48,2361
1325,26.5,2965
1326,26.52,3643
1327,26.54,3782
1328,26.560000000000002,3261
1329,26.580000000000002,2639
1330,26.6,2106
1331,26.62,1642
1332,26.64,1302
1333,26.66,1146
1334,26.68,1163
1335,26.7,1301
1336,26.72,1504
1337,26.740000000000002,1665
1338,26.76,1754
1339,26.78,1778
1340,26.8,1735
1341,26.82,1647
1342,26.84,1478
1343,26.86,1279
1344,26.88,1119
1345,26.900000000000002,1085
1346,26.92,1209
1347,26.94,1531
1348,26.96,2003
1349,26.98,2509
1350,27.0,2911
1351,27.02,3005
1352,27.04,2727
1353,27.060000000000002,2327
1354,27.080000000000002,1904
1355,27.1,1554
1356,27.12,1339
1357,27.14,1285
1358,27.16,1380
1359,27.18,1562
1360,27.2,1730
1361,27.22,1840
1362,27.240000000000002,1871
1363,27.26,1825
1364,27.28,1744
1365,27.3,1637
1366,27.32,1474
1367,27.34,1323
1368,27.36,1229
1369,27.38,1267
1370,27.400000000000002,1531
1371,27.42,1999
1372,27.44,2483
1373,27.46,2864
1374,27.48,2933
1375,27.5,2695
1376,27.52,2343
1377,27.54,1974
1378,27.560000000000002,1638
1379,27.580000000000002,1348
1380,27.6,1159
1381,27.62,1082
1382,27.64,1102
1383,27.66,1206
1384,27.68,1354
1385,27.7,1488
1386,27.72,1562
1387,27.740000000000002,1552
1388,27.76,1443
1389,27.78,1302
1390,27.8,1167
1391,27.82,1067
1392,27.84,1063
1393,27.86,1211
1394,27.88,1503
1395,27.900000000000002,1893
1396,27.92,2259
1397,27.94,2507
1398,27.96,2601
1399,27.98,2557
1400,28.0,2320
1401,28.02,2005
1402,28.04,1670
1403,28.060000000000002,1402
1404,28.080000000000002,1249
1405,28.1,1195
1406,28.12,1205
1407,28.14,1226
1408,28.16,1244
1409,28.18,1252
1410,28.2,1294
1411,28.22,1360
1412,28.240000000000002,1385
1413,28.26,1360
1414,28.28,1324
1415,28.3,1335
1416,28.32,1479
1417,28.34,1794
1418,28.36,2240
1419,28.38,2722
1420,28.400000000000002,3117
1421,28.42,3123
1422,28.44,2745
1423,28.46,2287
1424,28.48,1843
1425,28.5,1469
1426,28.52,1221
1427,28.54,1126
1428,28.560000000000002,1168
1429,28.580000000000002,1287
1430,28.6,1410
1431,28.62,1520
1432,28.64,1587
1433,28.66,1600
1434,28.68,1577
1435,28.7,1507
1436,28.72,1421
1437,28.740000000000002,1349
1438,28.76,1351
1439,28.78,1481
1440,28.8,1750
1441,28.82,2174
1442,28.84,2731
1443,28.86,3489
1444,28.88,4095
1445,28.900000000000002,4095
1446,28.92,3795
1447,28.94,3038
1448,28.96,2437
1449,28.98,1939
1450,29.0,1594
1451,29.02,1427
1452,29.04,1403
1453,29.060000000000002,1472
1454,29.080000000000002,1568
1455,29.1,1637
1456,29.12,1689
1457,29.14,1728
1458,29.16,1744
1459,29.18,1723
1460,29.2,1655
1461,29.22,1570
1462,29.240000000000002,1492
1463,29.26,1525
1464,29.28,1751
1465,29.3,2206
1466,29.32,2831
1467,29.34,3794
1468,29.36,4095
1469,29.38,4095
1470,29.400000000000002,4019
1471,29.42,3051
1472,29.44,2386
1473,29.46,1869
1474,29.48,1502
1475,29.5,1346
1476,29.52,1349
1477,29.54,1444
1478,29.560000000000002,1559
1479,29.580000000000002,1632
1480,29.6,1665
1481,29.62,1681
1482,29.64,1672
1483,29.66,1629
1484,29.68,1519
1485,29.7,1392
1486,29.72,1317
1487,29.740000000000002,1344
1488,29.76,1565
1489,29.78,2003
1490,29.8,2617
1491,29.82,3439
1492,29.84,4095
1493,29.86,4095
1494,29.88,3508
1495,29.900000000000002,2739
1496,29.92,2143
1497,29.94,1601
1498,29.96,1205
1499,29.98,1034
1500,30.0,1062
1501,30.02,1263
1502,30.04,1493
1503,30.060000000000002,1663
1504,30.080000000000002,1767
1505,30.1,1825
1506,30.12,1807
1507,30.14,1730
1508,30.16,1594
1509,30.18,1442
1510,30.2,1348
1511,30.22,1357
1512,30.240000000000002,1582
1513,30.26,2064
1514,30.28,2747
1515,30.3,3760
1516,30.32,4095
1517,30.34,4095
1518,30.36,3897
1519,30.38,2875
1520,30.400000000000002,2224
1521,30.42,1671
1522,30.44,1243
1523,30.46,979
1524,30.48,911
1525,30.5,990
1526,30.52,1149
1527,30.54,1331
1528,30.560000000000002,1487
1529,30.580000000000002,1546
1530,30.6,1477
1531,30.62,1350
1532,30.64,1238
1533,30.66,1171
1534,30.68,1155
1535,30.7,1218
1536,30.72,1449
1537,30.740000000000002,1923
1538,30.76,2606
1539,30.78,3551
1540,30.8,4095
1541,30.82,4095
1542,30.84,3741
1543,30.86,2810
1544,30.88,2160
1545,30.900000000000002,1599
1546,30.92,1159
1547,30.94,893
1548,30.96,799
1549,30.98,847
1550,31.0,986
1551,31.02,1168
1552,31.04,1344
1553,31.060000000000002,1488
1554,31.080000000000002,1606
1555,31.1,1665
1556,31.12,1673
1557,31.14,1634
1558,31.16,1573
1559,31.18,1517
1560,31.2,1559
1561,31.220000000000002,1805
1562,31.240000000000002,2288
1563,31.26,2957
1564,31.28,3877
1565,31.3,4095
1566,31.32,3917
1567,31.34,3098
1568,31.36,2458
1569,31.38,1943
1570,31.400000000000002,1488
1571,31.42,1141
1572,31.44,941
1573,31.46,908
1574,31.48,1028
1575,31.5,1209
1576,31.52,1379
1577,31.54,1482
1578,31.560000000000002,1517
1579,31.580000000000002,1518
1580,31.6,1495
1581,31.62,1446
1582,31.64,1378
1583,31.66,1291
1584,31.68,1229
1585,31.7,1297
1586,31.720000000000002,1586
1587,31.740000000000002,2120
1588,31.76,2825
1589,31.78,3805
1590,31.8,4095
1591,31.82,3888
1592,31.84,3001
1593,31.86,2378
1594,31.88,1851
1595,31.900000000000002,1403
1596,31.92,1107
1597,31.94,982
1598,31.96,1053
1599,31.98,1220
1600,32.0,1411
1601,32.02,1568
1602,32.04,1630
1603,32.06,1593
1604,32.08,1503
1605,32.1,1463
1606,32.12,1502
1607,32.14,1595
1608,32.160000000000004,1626
1609,32.18,1603
1610,32.2,1634
1611,32.22,1869
1612,32.24,2361
1613,32.26,3099
1614,32.28,4095
1615,32.3,4095
1616,32.32,4095
1617,32.34,3344
1618,32.36,2516
1619,32.38,1893
1620,32.4,1359
1621,32.42,976
1622,32.44,821
1623,32.46,880
1624,32.480000000000004,1075
1625,32.5,1283
1626,32.52,1474
1627,32.54,1616
1628,32.56,1686
1629,32.58,1685
1630,32.6,1599
1631,32.62,1415
1632,32.64,1203
1633,32.660000000000004,1086
1634,32.68,1090
1635,32.7,1264
1636,32.72,1665
1637,32.74,2276
1638,32.76,3031
1639,32.78,4061
1640,32.8,4095
1641,32.82,4095
1642,32.84,3264
1643,32.86,2496
1644,32.88,1886
1645,32.9,1362
1646,32.92,1008
1647,32.94,851
1648,32.96,869
1649,32.980000000000004,1021
1650,33.0,1200
1651,33.02,1343
1652,33.04,1421
1653,33.06,1456
1654,33.08,1456
1655,33.1,1424
1656,33.12,1403
1657,33.14,1385
1658,33.160000000000004,1372
1659,33.18,1358
1660,33.2,1444
1661,33.22,1767
1662,33.24,2320
1663,33.26,3011
1664,33.28,3713
1665,33.3,3692
1666,33.32,2990
1667,33.34,2287
1668,33.36,1594
1669,33.38,970
1670,33.4,520
1671,33.42,267
1672,33.44,214
1673,33.46,354
1674,33.480000000000004,605
1675,33.5,863
1676,33.52,1042
1677,33.54,1200
1678,33.56,1343
1679,33.58,1431
1680,33.6,1433
1681,33.62,1352
1682,33.64,1249
1683,33.660000000000004,1200
1684,33.68,1236
1685,33.7,1431
1686,33.72,1898
1687,33.74,2659
1688,33.76,4071
1689,33.78,4095
1690,33.8,4095
1691,33.82,4095
1692,33.84,4095
1693,33.86,2860
1694,33.88,2058
1695,33.9,1502
1696,33.92,1085
1697,33.94,747
1698,33.96,453
1699,33.980000000000004,193
1700,34.0,0
1701,34.02,0
1702,34.04,0
1703,34.06,137
1704,34.08,423
1705,34.1,757
1706,34.12,960
1707,34.14,1143
1708,34.160000000000004,1491
1709,34.18,1903
1710,34.2,2418
1711,34.22,3413
1712,34.24,4095
1713,34.26,4095
1714,34.28,4095
1715,34.300000000000004,4095
1716,34.32,4095
1717,34.34,3712
1718,34.36,1691
1719,34.38,262
1720,34.4,0
1721,34.42,0
1722,34.44,0
1723,34.46,0
1724,34.480000000000004,0
1725,34.5,0
1726,34.52,204
1727,34.54,550
1728,34.56,714
1729,34.58,605
1730,34.6,346
1731,34.62,107
1732,34.64,0
1733,34.660000000000004,19
1734,34.68,285
1735,34.7,783
1736,34.72,1293
1737,34.74,1733
1738,34.76,2107
1739,34.78,2464
1740,34.800000000000004,2726
1741,34.82,2705
1742,34.84,2481
1743,34.86,2171
1744,34.88,1872
1745,34.9,1625
1746,34.92,1439
1747,34.94,1329
1748,34.96,1327
1749,34.980000000000004,1458
1750,35.0,1711
1751,35.02,1930
1752,35.04,2019
1753,35.06,1966
1754,35.08,1823
1755,35.1,1666
1756,35.12,1523
1757,35.14,1381
1758,35.160000000000004,1243
1759,35.18,1259
1760,35.2,1503
1761,35.22,1954
1762,35.24,2454
1763,35.26,2877
1764,35.28,3059
1765,35.300000000000004,2954
1766,35.32,2659
1767,35.34,2282
1768,35.36,1813
1769,35.38,1244
1770,35.4,755
1771,35.42,587
1772,35.44,800
1773,35.46,1201
1774,35.480000000000004,1593
1775,35.5,1899
1776,35.52,2161
1777,35.54,2345
1778,35.56,2354
1779,35.58,2190
1780,35.6,1954
1781,35.62,1726
1782,35.64,1495
1783,35.660000000000004,1311
1784,35.68,1275
1785,35.7,1558
1786,35.72,2119
1787,35.74,2723
1788,35.76,3433
1789,35.78,4021
1790,35.800000000000004,3947
1791,35.82,3274
1792,35.84,2667
1793,35.86,2255
1794,35.88,1839
1795,35.9,1471
1796,35.92,1212
1797,35.94,910
1798,35.96,550
1799,35.980000000000004,522
1800,36.0,862
1801,36.02,1343
1802,36.04,1779
1803,36.06,2176
1804,36.08,2388
1805,36.1,2337
1806,36.12,2116
1807,36.14,1924
1808,36.160000000000004,1907
1809,36.18,2087
1810,36.2,2308
1811,36.22,2445
1812,36.24,2384
1813,36.26,2153
1814,36.28,1858
1815,36.300000000000004,1641
1816,36.32,1546
1817,36.34,1605
1818,36.36,1730
1819,36.38,1904
1820,36.4,1917
1821,36.42,1771
1822,36.44,1489
1823,36.46,1233
1824,36.480000000000004,1061
1825,36.5,941
1826,36.52,896
1827,36.54,924
1828,36.56,1009
1829,36.58,1174
1830,36.6,1328
1831,36.62,1518
1832,36.64,1941
1833,36.660000000000004,2656
1834,36.68,3761
1835,36.7,4095
1836,36.72,4095
1837,36.74,4095
1838,36.76,3298
1839,36.78,2499
1840,36.800000000000004,2011
1841,36.82,1707
1842,36.84,1583
1843,36.86,1591
1844,36.88,1633
1845,36.9,1659
1846,36.92,1697
1847,36.94,1775
1848,36.96,1866
1849,36.980000000000004,1861
1850,37.0,1712
1851,37.02,1627
1852,37.04,1647
1853,37.06,1695
1854,37.08,1787
1855,37.1,2069
1856,37.12,2542
1857,37.14,3239
1858,37.160000000000004,4095
1859,37.18,4095
1860,37.2,3831
1861,37.22,2912
1862,37.24,2240
1863,37.26,1661
1864,37.28,1230
1865,37.300000000000004,1066
1866,37.32,1168
1867,37.34,1456
1868,37.36,1786
1869,37.38,2023
1870,37.4,2101
1871,37.42,2016
1872,37.44,1843
1873,37.46,1706
1874,37.480000000000004,1713
1875,37.5,2151
1876,37.52,2720
1877,37.54,3203
1878,37.56,3312
1879,37.58,2917
1880,37.6,2419
1881,37.62,1814
1882,37.64,1072
1883,37.660000000000004,327
1884,37.68,0
1885,37.7,0
1886,37.72,0
1887,37.74,0
1888,37.76,0
1889,37.78,0
1890,37.800000000000004,0
1891,37.82,0
1892,37.84,0
1893,37.86,0
1894,37.88,0
1895,37.9,260
1896,37.92,1611
1897,37.94,2575
1898,37.96,3237
1899,37.980000000000004,3450
1900,38.0,3299
1901,38.02,3432
1902,38.04,4095
1903,38.06,4095
1904,38.08,4095
1905,38.1,4095
1906,38.12,4095
1907,38.14,4095
1908,38.160000000000004,4095
1909,38.18,4095
1910,38.2,4095
1911,38.22,4095
1912,38.24,4095
1913,38.26,4095
1914,38.28,4095
1915,38.300000000000004,4095
1916,38.32,4095
1917,38.34,4095
1918,38.36,4095
1919,38.38,4095
1920,38.4,4095
1921,38.42,4095
1922,38.44,4095
1923,38.46,2307
1924,38.480000000000004,230
1925,38.5,0
1926,38.52,0
1927,38.54,0
1928,38.56,0
1929,38.58,0
1930,38.6,0
1931,38.62,0
1932,38.64,0
1933,38.660000000000004,0
1934,38.68,0
1935,38.7,0
1936,38.72,0
1937,38.74,0
1938,38.76,0
1939,38.78,0
1940,38.800000000000004,0
1941,38.82,0
1942,38.84,0
1943,38.86,0
1944,38.88,0
1945,38.9,0
1946,38.92,0
1947,38.94,0
1948,38.96,0
1949,38.980000000000004,0
1950,39.0,0
1951,39.02,0
1952,39.04,0
1953,39.06,0
1954,39.08,0
1955,39.1,0
1956,39.12,0
1957,39.14,0
1958,39.160000000000004,0
1959,39.18,0
1960,39.2,17
1961,39.22,483
1962,39.24,678
1963,39.26,704
1964,39.28,807
1965,39.300000000000004,1071
1966,39.32,1400
1967,39.34,1758
1968,39.36,2081
1969,39.38,2257
1970,39.4,2134
1971,39.42,1689
1972,39.44,1008
1973,39.46,338
1974,39.480000000000004,0
1975,39.5,18
1976,39.52,247
1977,39.54,14
1978,39.56,0
1979,39.58,0
1980,39.6,0
1981,39.62,0
1982,39.64,0
1983,39.660000000000004,0
1984,39.68,0
1985,39.7,0
1986,39.72,17
1987,39.74,2063
1988,39.76,4095
1989,39.78,4095
1990,39.800000000000004,4095
1991,39.82,4095
1992,39.84,4095
1993,39.86,4095
1994,39.88,4095
1995,39.9,4095
1996,39.92,4095
1997,39.94,4095
1998,39.96,4095
1999,39.980000000000004,4095
2000,40.0,4095
2001,40.02,4095
2002,40.04,4095
2003,40.06,4095
2004,40.08,4095
2005,40.1,4095
2006,40.12,4095
2007,40.14,4095
2008,40.160000000000004,4095
2009,40.18,4095
2010,40.2,4095
2011,40.22,4095
2012,40.24,4095
2013,40.26,4095
2014,40.28,4095
2015,40.300000000000004,4095
2016,40.32,4095
2017,40.34,4095
2018,40.36,4095
2019,40.38,4095
2020,40.4,4095
2021,40.42,4095
2022,40.44,4095
2023,40.46,4095
2024,40.480000000000004,4095
2025,40.5,4095
2026,40.52,4095
2027,40.54,4095
2028,40.56,4095
2029,40.58,4095
2030,40.6,4095
2031,40.62,2791
2032,40.64,2217
2033,40.660000000000004,1825
2034,40.68,1558
2035,40.7,1391
2036,40.72,1309
2037,40.74,1277
2038,40.76,1279
2039,40.78,1276
2040,40.800000000000004,1263
2041,40.82,1221
2042,40.84,1181
2043,40.86,1162
2044,40.88,1200
2045,40.9,1286
2046,40.92,1358
2047,40.94,1360
2048,40.96,1341
2049,40.980000000000004,1315
2050,41.0,1287
2051,41.02,1280
2052,41.04,1319
2053,41.06,1425
2054,41.08,1610
2055,41.1,1779
2056,41.12,1901
2057,41.14,1920
2058,41.160000000000004,1831
2059,41.18,1685
2060,41.2,1545
2061,41.22,1408
2062,41.24,1281
2063,41.26,1136
2064,41.28,980
2065,41.300000000000004,826
2066,41.32,668
2067,41.34,488
2068,41.36,286
2069,41.38,137
2070,41.4,0
2071,41.42,0
2072,41.44,0
2073,41.46,0
2074,41.480000000000004,0
2075,41.5,0
2076,41.52,0
2077,41.54,0
2078,41.56,0
2079,41.58,0
2080,41.6,0
2081,41.62,0
2082,41.64,0
2083,41.660000000000004,0
2084,41.68,0
2085,41.7,0
2086,41.72,0
2087,41.74,0
2088,41.76,23
2089,41.78,800
2090,41.800000000000004,1408
2091,41.82,1745
2092,41.84,1819
2093,41.86,1701
2094,41.88,1456
2095,41.9,1136
2096,41.92,797
2097,41.94,560
2098,41.96,507
2099,41.980000000000004,752
2100,42.0,1309
2101,42.02,2081
2102,42.04,2999
2103,42.06,4095
2104,42.08,4095
2105,42.1,4095
2106,42.12,4095
2107,42.14,4095
2108,42.160000000000004,3210
2109,42.18,1915
2110,42.2,863
2111,42.22,85
2112,42.24,0
2113,42.26,0
2114,42.28,0
2115,42.300000000000004,0
2116,42.32,0
2117,42.34,6
2118,42.36,352
2119,42.38,638
2120,42.4,802
2121,42.42,895
2122,42.44,959
2123,42.46,1043
2124,42.480000000000004,1157
2125,42.5,1367
2126,42.52,1702
2127,42.54,2071
2128,42.56,2381
2129,42.58,2547
2130,42.6,2501
2131,42.62,2261
2132,42.64,1920
2133,42.660000000000004,1587
2134,42.68,1310
2135,42.7,1116
2136,42.72,991
2137,42.74,954
2138,42.76,991
2139,42.78,1104
2140,42.800000000000004,1236
2141,42.82,1354
2142,42.84,1450
2143,42.86,1506
2144,42.88,1507
2145,42.9,1439
2146,42.92,1317
2147,42.94,1198
2148,42.96,1127
2149,42.980000000000004,1166
2150,43.0,1367
2151,43.02,1690
2152,43.04,2030
2153,43.06,2291
2154,43.08,2420
2155,43.1,2354
2156,43.12,2181
2157,43.14,1949
2158,43.160000000000004,1722
2159,43.18,1535
2160,43.2,1427
2161,43.22,1376
2162,43.24,1392
2163,43.26,1426
2164,43.28,1465
2165,43.300000000000004,1475
2166,43.32,1460
2167,43.34,1424
2168,43.36,1408
2169,43.38,1406
2170,43.4,1375
2171,43.42,1351
2172,43.44,1392
2173,43.46,1552
2174,43.480000000000004,1843
2175,43.5,2223
2176,43.52,2558
2177,43.54,2772
2178,43.56,2768
2179,43.58,2578
2180,43.6,2297
2181,43.62,2014
2182,43.64,1765
2183,43.660000000000004,1587
2184,43.68,1510
2185,43.7,1519
2186,43.72,1614
2187,43.74,1756
2188,43.76,1881
2189,43.78,1897
2190,43.800000000000004,1777
2191,43.82,1621
2192,43.84,1533
2193,43.86,1616
2194,43.88,1903
2195,43.9,2325
2196,43.92,2833
2197,43.94,3650
2198,43.96,4095
2199,43.980000000000004,4095
2200,44.0,4095
2201,44.02,4095
2202,44.04,4095
2203,44.06,4095
2204,44.08,3440
2205,44.1,2480
2206,44.12,1868
2207,44.14,1399
2208,44.160000000000004,1075
2209,44.18,896
2210,44.2,849
2211,44.22,910
2212,44.24,1014
2213,44.26,1136
2214,44.28,1200
2215,44.300000000000004,1215
2216,44.32,1230
2217,44.34,1301
2218,44.36,1467
2219,44.38,1719
2220,44.4,2117
2221,44.42,2691
2222,44.44,3679
2223,44.46,4095
2224,44.480000000000004,4095
2225,44.5,4095
2226,44.52,4095
2227,44.54,4095
2228,44.56,3426
2229,44.58,2611
2230,44.6,2151
2231,44.62,1824
2232,44.64,1626
2233,44.660000000000004,1547
2234,44.68,1534
2235,44.7,1557
2236,44.72,1566
2237,44.74,1522
2238,44.76,1453
2239,44.78,1359
2240,44.800000000000004,1245
2241,44.82,1131
2242,44.84,1045
2243,44.86,1073
2244,44.88,1266
2245,44.9,1629
2246,44.92,2030
2247,44.94,2320
2248,44.96,2416
2249,44.980000000000004,2315
2250,45.0,2064
2251,45.02,1735
2252,45.04,1402
2253,45.06,1161
2254,45.08,1053
2255,45.1,1084
2256,45.12,1223
2257,45.14,1406
2258,45.160000000000004,1573
2259,45.18,1670
2260,45.2,1695
2261,45.22,1663
2262,45.24,1600
2263,45.26,1527
2264,45.28,1446
2265,45.300000000000004,1387
2266,45.32,1439
2267,45.34,1676
2268,45.36,2045
2269,45.38,2448
2270,45.4,2781
2271,45.42,2928
2272,45.44,2813
2273,45.46,2517
2274,45.480000000000004,2130
2275,45.5,1711
2276,45.52,1321
2277,45.54,1015
2278,45.56,816
2279,45.58,749
2280,45.6,807
2281,45.62,947
2282,45.64,1104
2283,45.660000000000004,1205
2284,45.68,1245
2285,45.7,1250
2286,45.72,1246
2287,45.74,1250
2288,45.76,1254
2289,45.78,1309
2290,45.800000000000004,1519
2291,45.82,1925
2292,45.84,2464
2293,45.86,3035
2294,45.88,3502
2295,45.9,3479
2296,45.92,3046
2297,45.94,2576
2298,45.96,2163
2299,45.980000000000004,1823
2300,46.0,1580
2301,46.02,1474
2302,46.04,1493
2303,46.06,1578
2304,46.08,1675
2305,46.1,1753
2306,46.12,1801
2307,46.14,1822
2308,46.160000000000004,1809
2309,46.18,1762
2310,46.2,1665
2311,46.22,1552
2312,46.24,1456
2313,46.26,1471
2314,46.28,1677
2315,46.300000000000004,2067
2316,46.32,2515
2317,46.34,2975
2318,46.36,3311
2319,46.38,3256
2320,46.4,2893
2321,46.42,2474
2322,46.44,2063
2323,46.46,1680
2324,46.480000000000004,1390
2325,46.5,1224
2326,46.52,1201
2327,46.54,1299
2328,46.56,1424
2329,46.58,1535
2330,46.6,1631
2331,46.62,1697
2332,46.64,1731
2333,46.660000000000004,1714
2334,46.68,1648
2335,46.7,1587
2336,46.72,1553
2337,46.74,1597
2338,46.76,1785
2339,46.78,2127
2340,46.800000000000004,2529
2341,46.82,2905
2342,46.84,3120
2343,46.86,2990
2344,46.88,2655
2345,46.9,2286
2346,46.92,1918
2347,46.94,1629
2348,46.96,1443
2349,46.980000000000004,1409
2350,47.0,1495
2351,47.02,1648
2352,47.04,1744
2353,47.06,1747
2354,47.08,1664
2355,47.1,1529
2356,47.12,1389
2357,47.14,1258
2358,47.160000000000004,1136
2359,47.18,1042
2360,47.2,997
2361,47.22,1088
2362,47.24,1402
2363,47.26,1941
2364,47.28,2546
2365,47.300000000000004,3147
2366,47.32,3515
2367,47.34,3357
2368,47.36,2897
2369,47.38,2490
2370,47.4,2143
2371,47.42,1845
2372,47.44,1633
2373,47.46,1488
2374,47.480000000000004,1414
2375,47.5,1396
2376,47.52,1411
2377,47.54,1426
2378,47.56,1410
2379,47.58,1372
2380,47.6,1295
2381,47.62,1199
2382,47.64,1093
2383,47.660000000000004,1008
2384,47.68,976
2385,47.7,1017
2386,47.72,1200
2387,47.74,1572
2388,47.76,2047
2389,47.78,2513
2390,47.800000000000004,2858
2391,47.82,2921
2392,47.84,2679
2393,47.86,2327
2394,47.88,1923
2395,47.9,1567
2396,47.92,1322
2397,47.94,1190
2398,47.96,1184
2399,47.980000000000004,1285
2400,48.0,1423
2401,48.02,1552
2402,48.04,1639
2403,48.06,1666
2404,48.08,1651
2405,48.1,1584
2406,48.120000000000005,1511
2407,48.14,1423
2408,48.160000000000004,1317
2409,48.18,1243
2410,48.2,1271
2411,48.22,1459
2412,48.24,1808
2413,48.26,2230
2414,48.28,2597
2415,48.300000000000004,2782
2416,48.32,2719
2417,48.34,2466
2418,48.36,2128
2419,48.38,1762
2420,48.4,1436
2421,48.42,1222
2422,48.44,1142
2423,48.46,1179
2424,48.480000000000004,1291
2425,48.5,1411
2426,48.52,1501
2427,48.54,1525
2428,48.56,1501
2429,48.58,1435
2430,48.6,1349
2431,48.620000000000005,1251
2432,48.64,1157
2433,48.660000000000004,1091
2434,48.68,1107
2435,48.7,1279
2436,48.72,1622
2437,48.74,2072
2438,48.76,2480
2439,48.78,2730
2440,48.800000000000004,2704
2441,48.82,2455
2442,48.84,2112
2443,48.86,1735
2444,48.88,1400
2445,48.9,1171
2446,48.92,1076
2447,48.94,1104
2448,48.96,1219
2449,48.980000000000004,1351
2450,49.0,1473
2451,49.02,1567
2452,49.04,1593
2453,49.06,1558
2454,49.08,1495
2455,49.1,1434
2456,49.120000000000005,1378
2457,49.14,1335
2458,49.160000000000004,1329
2459,49.18,1403
2460,49.2,1649
2461,49.22,2057
2462,49.24,2513
2463,49.26,2903
2464,49.28,3089
2465,49.300000000000004,2932
2466,49.32,2647
2467,49.34,2340
2468,49.36,2015
2469,49.38,1717
2470,49.4,1499
2471,49.42,1393
2472,49.44,1386
2473,49.46,1436
2474,49.480000000000004,1500
2475,49.5,1613
2476,49.52,1699
2477,49.54,1871
2478,49.56,2247
2479,49.58,2415
2480,49.6,2336
2481,49.620000000000005,2101
2482,49.64,1824
2483,49.660000000000004,1598
2484,49.68,1506
2485,49.7,1653
2486,49.72,1969
2487,49.74,2339
2488,49.76,2599
2489,49.78,2659
2490,49.800000000000004,2499
2491,49.82,2231
2492,49.84,1904
2493,49.86,1601
2494,49.88,1363
2495,49.9,1238
2496,49.92,1217
2497,49.94,1293
2498,49.96,1429
2499,49.980000000000004,1580
2500,50.0,1671
2501,50.02,1733
2502,50.04,1727
2503,50.06,1687
2504,50.08,1617
2505,50.1,1535
2506,50.120000000000005,1454
2507,50.14,1403
2508,50.160000000000004,1422
2509,50.18,1569
2510,50.2,1873
2511,50.22,2287
2512,50.24,2710
2513,50.26,3049
2514,50.28,3116
2515,50.300000000000004,2887
2516,50.32,2542
2517,50.34,2194
2518,50.36,1870
2519,50.38,1627
2520,50.4,1490
2521,50.42,1473
2522,50.44,1553
2523,50.46,1681
2524,50.480000000000004,1806
2525,50.5,1891
2526,50.52,1909
2527,50.54,1866
2528,50.56,1778
2529,50.58,1669
2530,50.6,1565
2531,50.620000000000005,1480
2532,50.64,1451
2533,50.660000000000004,1534
2534,50.68,1805
2535,50.7,2224
2536,50.72,2704
2537,50.74,3183
2538,50.76,3411
2539,50.78,3223
2540,50.800000000000004,2794
2541,50.82,2355
2542,50.84,1952
2543,50.86,1614
2544,50.88,1360
2545,50.9,1254
2546,50.92,1287
2547,50.94,1408
2548,50.96,1553
2549,50.980000000000004,1652
2550,51.0,1689
2551,51.02,1682
2552,51.04,1634
2553,51.06,1567
2554,51.08,1479
2555,51.1,1402
2556,51.120000000000005,1351
2557,51.14,1409
2558,51.160000000000004,1650
2559,51.18,2076
2560,51.2,2581
2561,51.22,3087
2562,51.24,3405
2563,51.26,3259
2564,51.28,2819
2565,51.300000000000004,2351
2566,51.32,1885
2567,51.34,1488
2568,51.36,1218
2569,51.38,1121
2570,51.4,1179
2571,51.42,1334
2572,51.44,1529
2573,51.46,1709
2574,51.480000000000004,1787
2575,51.5,1794
2576,51.52,1746
2577,51.54,1667
2578,51.56,1575
2579,51.58,1477
2580,51.6,1418
2581,51.620000000000005,1440
2582,51.64,1648
2583,51.660000000000004,2030
2584,51.68,2532
2585,51.7,3069
2586,51.72,3440
2587,51.74,3344
2588,51.76,2894
2589,51.78,2416
2590,51.800000000000004,1936
2591,51.82,1488
2592,51.84,1165
2593,51.86,990
2594,51.88,983
2595,51.9,1104
2596,51.92,1250
2597,51.94,1392
2598,51.96,1487
2599,51.980000000000004,1502
2600,52.0,1465
2601,52.02,1398
2602,52.04,1292
2603,52.06,1172
2604,52.08,1099
2605,52.1,1151
2606,52.120000000000005,1418
2607,52.14,1879
2608,52.160000000000004,2365
2609,52.18,2735
2610,52.2,2894
2611,52.22,2761
2612,52.24,2455
2613,52.26,2078
2614,52.28,1685
2615,52.300000000000004,1359
2616,52.32,1149
2617,52.34,1088
2618,52.36,1171
2619,52.38,1343
2620,52.4,1535
2621,52.42,1687
2622,52.44,1760
2623,52.46,1754
2624,52.480000000000004,1684
2625,52.5,1584
2626,52.52,1477
2627,52.54,1392
2628,52.56,1377
2629,52.58,1494
2630,52.6,1793
2631,52.620000000000005,2222
2632,52.64,2663
2633,52.660000000000004,3041
2634,52.68,3167
2635,52.7,2929
2636,52.72,2544
2637,52.74,2127
2638,52.76,1703
2639,52.78,1349
2640,52.800000000000004,1151
2641,52.82,1117
2642,52.84,1210
2643,52.86,1355
2644,52.88,1504
2645,52.9,1609
2646,52.92,1648
2647,52.94,1619
2648,52.96,1555
2649,52.980000000000004,1460
2650,53.0,1374
2651,53.02,1328
2652,53.04,1392
2653,53.06,1649
2654,53.08,2093
2655,53.1,2589
2656,53.120000000000005,3078
2657,53.14,3349
2658,53.160000000000004,3170
2659,53.18,2723
2660,53.2,2274
2661,53.22,1847
2662,53.24,1504
2663,53.26,1302
2664,53.28,1241
2665,53.300000000000004,1303
2666,53.32,1440
2667,53.34,1600
2668,53.36,1708
2669,53.38,1759
2670,53.4,1749
2671,53.42,1703
2672,53.44,1629
2673,53.46,1552
2674,53.480000000000004,1485
2675,53.5,1495
2676,53.52,1679
2677,53.54,2030
2678,53.56,2487
2679,53.58,2988
2680,53.6,3389
2681,53.620000000000005,3372
2682,53.64,2987
2683,53.660000000000004,2533
2684,53.68,2099
2685,53.7,1697
2686,53.72,1392
2687,53.74,1206
2688,53.76,1170
2689,53.78,1280
2690,53.800000000000004,1457
2691,53.82,1621
2692,53.84,1716
2693,53.86,1751
2694,53.88,1735
2695,53.9,1671
2696,53.92,1577
2697,53.94,1488
2698,53.96,1455
2699,53.980000000000004,1550
2700,54.0,1840
2701,54.02,2274
2702,54.04,2731
2703,54.06,3114
2704,54.08,3150
2705,54.1,2827
2706,54.120000000000005,2396
2707,54.14,1939
2708,54.160000000000004,1521
2709,54.18,1233
2710,54.2,1118
2711,54.22,1168
2712,54.24,1314
2713,54.26,1476
2714,54.28,1616
2715,54.300000000000004,1703
2716,54.32,1706
2717,54.34,1641
2718,54.36,1547
2719,54.38,1453
2720,54.4,1383
2721,54.42,1328
2722,54.44,1325
2723,54.46,1459
2724,54.480000000000004,1777
2725,54.5,2204
2726,54.52,2623
2727,54.54,2933
2728,54.56,2977
2729,54.58,2723
2730,54.6,2345
2731,54.620000000000005,1933
2732,54.64,1535
2733,54.660000000000004,1236
2734,54.68,1083
2735,54.7,1091
2736,54.72,1229
2737,54.74,1408
2738,54.76,1581
2739,54.78,1652
2740,54.800000000000004,1654
2741,54.82,1616
2742,54.84,1552
2743,54.86,1455
2744,54.88,1370
2745,54.9,1327
2746,54.92,1363
2747,54.94,1582
2748,54.96,1984
2749,54.980000000000004,2475
2750,55.0,2958
2751,55.02,3265
2752,55.04,3189
2753,55.06,2817
2754,55.08,2384
2755,55.1,1936
2756,55.120000000000005,1523
2757,55.14,1235
2758,55.160000000000004,1095
2759,55.18,1142
2760,55.2,1289
2761,55.22,1456
2762,55.24,1616
2763,55.26,1723
2764,55.28,1765
2765,55.300000000000004,1732
2766,55.32,1641
2767,55.34,1531
2768,55.36,1440
2769,55.38,1417
2770,55.4,1518
2771,55.42,1838
2772,55.44,2332
2773,55.46,2930
2774,55.480000000000004,3617
2775,55.5,3872
2776,55.52,3472
2777,55.54,2823
2778,55.56,2283
2779,55.58,1789
2780,55.6,1395
2781,55.620000000000005,1167
2782,55.64,1125
2783,55.660000000000004,1220
2784,55.68,1395
2785,55.7,1561
2786,55.72,1657
2787,55.74,1660
2788,55.76,1589
2789,55.78,1491
2790,55.800000000000004,1403
2791,55.82,1318
2792,55.84,1260
2793,55.86,1264
2794,55.88,1421
2795,55.9,1811
2796,55.92,2352
2797,55.94,2921
2798,55.96,3466
2799,55.980000000000004,3569
2800,56.0,3165
2801,56.02,2656
2802,56.04,2185
2803,56.06,1743
2804,56.08,1401
2805,56.1,1205
2806,56.120000000000005,1199
2807,56.14,1337
2808,56.160000000000004,1519
2809,56.18,1691
2810,56.2,1792
2811,56.22,1825
2812,56.24,1781
2813,56.26,1695
2814,56.28,1591
2815,56.300000000000004,1472
2816,56.32,1360
2817,56.34,1297
2818,56.36,1351
2819,56.38,1622
2820,56.4,2103
2821,56.42,2640
2822,56.44,3199
2823,56.46,3494
2824,56.480000000000004,3263
2825,56.5,2754
2826,56.52,2245
2827,56.54,1733
2828,56.56,1296
2829,56.58,1008
2830,56.6,899
2831,56.620000000000005,930
2832,56.64,1072
2833,56.660000000000004,1247
2834,56.68,1398
2835,56.7,1513
2836,56.72,1611
2837,56.74,1683
2838,56.76,1707
2839,56.78,1671
2840,56.800000000000004,1604
2841,56.82,1516
2842,56.84,1474
2843,56.86,1561
2844,56.88,1865
2845,56.9,2343
2846,56.92,2883
2847,56.94,3435
2848,56.96,3595
2849,56.980000000000004,3206
2850,57.0,2642
2851,57.02,2129
2852,57.04,1646
2853,57.06,1267
2854,57.08,1056
2855,57.1,1011
2856,57.120000000000005,1134
2857,57.14,1337
2858,57.160000000000004,1564
2859,57.18,1713
2860,57.2,1776
2861,57.22,1744
2862,57.24,1643
2863,57.26,1520
2864,57.28,1408
2865,57.300000000000004,1328
2866,57.32,1281
2867,57.34,1302
2868,57.36,1490
2869,57.38,1923
2870,57.4,2478
2871,57.42,3056
2872,57.44,3488
2873,57.46,3427
2874,57.480000000000004,2975
2875,57.5,2480
2876,57.52,1969
2877,57.54,1502
2878,57.56,1166
2879,57.58,1013
2880,57.6,1042
2881,57.620000000000005,1169
2882,57.64,1361
2883,57.660000000000004,1552
2884,57.68,1674
2885,57.7,1709
2886,57.72,1671
2887,57.74,1574
2888,57.76,1452
2889,57.78,1345
2890,57.800000000000004,1276
2891,57.82,1258
2892,57.84,1351
2893,57.86,1684
2894,57.88,2253
2895,57.9,2942
2896,57.92,3783
2897,57.94,4095
2898,57.96,3772
2899,57.980000000000004,3029
2900,58.0,2421
2901,58.02,1894
2902,58.04,1440
2903,58.06,1151
2904,58.08,1044
2905,58.1,1104
2906,58.120000000000005,1263
2907,58.14,1435
2908,58.160000000000004,1589
2909,58.18,1675
2910,58.2,1690
2911,58.22,1644
2912,58.24,1557
2913,58.26,1457
2914,58.28,1387
2915,58.300000000000004,1328
2916,58.32,1322
2917,58.34,1433
2918,58.36,1774
2919,58.38,2316
2920,58.4,2993
2921,58.42,3827
2922,58.44,4095
2923,58.46,3749
2924,58.480000000000004,2991
2925,58.5,2391
2926,58.52,1894
2927,58.54,1502
2928,58.56,1282
2929,58.58,1245
2930,58.6,1339
2931,58.620000000000005,1498
2932,58.64,1651
2933,58.660000000000004,1756
2934,58.68,1791
2935,58.7,1758
2936,58.72,1675
2937,58.74,1574
2938,58.76,1449
2939,58.78,1338
2940,58.800000000000004,1262
2941,58.82,1232
2942,58.84,1318
2943,58.86,1604
2944,58.88,2114
2945,58.9,2730
2946,58.92,3451
2947,58.94,3869
2948,58.96,3583
2949,58.980000000000004,2927
2950,59.0,2343
2951,59.02,1821
2952,59.04,1374
2953,59.06,1089
2954,59.08,997
2955,59.1,1088
2956,59.120000000000005,1258
2957,59.14,1450
2958,59.160000000000004,1605
2959,59.18,1689
2960,59.2,1711
2961,59.22,1666
2962,59.24,1589
2963,59.26,1495
2964,59.28,1392
2965,59.300000000000004,1302
2966,59.32,1264
2967,59.34,1327
2968,59.36,1566
2969,59.38,2031
2970,59.4,2653
2971,59.42,3450
2972,59.44,4095
2973,59.46,3893
2974,59.480000000000004,3175
2975,59.5,2528
2976,59.52,2013
2977,59.54,1584
2978,59.56,1295
2979,59.58,1200
2980,59.6,1266
2981,59.620000000000005,1453
2982,59.64,1685
2983,59.660000000000004,1875
2984,59.68,1981
2985,59.7,1983
2986,59.72,1901
2987,59.74,1773
2988,59.76,1623
2989,59.78,1471
2990,59.800000000000004,1349
2991,59.82,1335
2992,59.84,1501
2993,59.86,1920
2994,59.88,2509
2995,59.9,3242
2996,59.92,4023
2997,59.94,4095
2998,59.96,3644
2999,59.980000000000004,2887
3000,60.0,2295
3001,60.02,1775
3002,60.04,1314
3003,60.06,1008
3004,60.08,912
3005,60.1,1008
3006,60.120000000000005,1206
3007,60.14,1414
3008,60.160000000000004,1575
3009,60.18,1645
3010,60.2,1619
3011,60.22,1546
3012,60.24,1424
3013,60.26,1301
3014,60.28,1217
3015,60.300000000000004,1200
3016,60.32,1297
3017,60.34,1619
3018,60.36,2171
3019,60.38,2833
3020,60.4,3683
3021,60.42,4095
3022,60.44,3818
3023,60.46,3041
3024,60.480000000000004,2419
3025,60.5,1877
3026,60.52,1408
3027,60.54,1092
3028,60.56,975
3029,60.58,1048
3030,60.6,1233
3031,60.620000000000005,1457
3032,60.64,1658
3033,60.660000000000004,1778
3034,60.68,1795
3035,60.7,1744
3036,60.72,1654
3037,60.74,1570
3038,60.76,1518
3039,60.78,1479
3040,60.800000000000004,1508
3041,60.82,1757
3042,60.84,2327
3043,60.86,3394
3044,60.88,4095
3045,60.9,4095
3046,60.92,4095
3047,60.94,4095
3048,60.96,4095
3049,60.980000000000004,4095
3050,61.0,4095
3051,61.02,2759
3052,61.04,2098
3053,61.06,1648
3054,61.08,1379
3055,61.1,1290
3056,61.120000000000005,1301
3057,61.14,1344
3058,61.160000000000004,1338
3059,61.18,1235
3060,61.2,1037
3061,61.22,806
3062,61.24,587
3063,61.26,448
3064,61.28,442
3065,61.300000000000004,693
3066,61.32,1254
3067,61.34,1967
3068,61.36,2624
3069,61.38,3183
3070,61.4,3361
3071,61.42,3001
3072,61.44,2486
3073,61.46,1968
3074,61.480000000000004,1479
3075,61.5,1109
3076,61.52,938
3077,61.54,989
3078,61.56,1232
3079,61.58,1566
3080,61.6,1867
3081,61.620000000000005,2073
3082,61.64,2169
3083,61.660000000000004,2145
3084,61.68,2004
3085,61.7,1810
3086,61.72,1616
3087,61.74,1472
3088,61.76,1443
3089,61.78,1616
3090,61.800000000000004,2027
3091,61.82,2607
3092,61.84,3385
3093,61.86,4095
3094,61.88,3973
3095,61.9,3169
3096,61.92,2435
3097,61.940000000000005,1792
3098,61.96,1209
3099,61.980000000000004,806
3100,62.0,639
3101,62.02,715
3102,62.04,925
3103,62.06,1201
3104,62.08,1418
3105,62.1,1527
3106,62.120000000000005,1526
3107,62.14,1437
3108,62.160000000000004,1302
3109,62.18,1141
3110,62.2,976
3111,62.22,893
3112,62.24,971
3113,62.26,1327
3114,62.28,1909
3115,62.300000000000004,2547
3116,62.32,3125
3117,62.34,3379
3118,62.36,3088
3119,62.38,2597
3120,62.4,2116
3121,62.42,1737
3122,62.440000000000005,1571
3123,62.46,1619
3124,62.480000000000004,1651
3125,62.5,1615
3126,62.52,1545
3127,62.54,1461
3128,62.56,1378
3129,62.58,1280
3130,62.6,1173
3131,62.620000000000005,1091
3132,62.64,1042
3133,62.660000000000004,1004
3134,62.68,1008
3135,62.7,1101
3136,62.72,1360
3137,62.74,1859
3138,62.76,2463
3139,62.78,3123
3140,62.800000000000004,3709
3141,62.82,3682
3142,62.84,3099
3143,62.86,2509
3144,62.88,1975
3145,62.9,1511
3146,62.92,1183
3147,62.940000000000005,1033
3148,62.96,1040
3149,62.980000000000004,1167
3150,63.0,1330
3151,63.02,1475
3152,63.04,1552
3153,63.06,1552
3154,63.08,1455
3155,63.1,1281
3156,63.120000000000005,1115
3157,63.14,1005
3158,63.160000000000004,1005
3159,63.18,1151
3160,63.2,1483
3161,63.22,2007
3162,63.24,2645
3163,63.26,3439
3164,63.28,4095
3165,63.300000000000004,4044
3166,63.32,3363
3167,63.34,2685
3168,63.36,2158
3169,63.38,1698
3170,63.4,1379
3171,63.42,1238
3172,63.440000000000005,1252
3173,63.46,1374
3174,63.480000000000004,1534
3175,63.5,1661
3176,63.52,1721
3177,63.54,1713
3178,63.56,1663
3179,63.58,1579
3180,63.6,1456
3181,63.620000000000005,1340
3182,63.64,1264
3183,63.660000000000004,1287
3184,63.68,1500
3185,63.7,1917
3186,63.72,2432
3187,63.74,2961
3188,63.76,3382
3189,63.78,3353
3190,63.800000000000004,2945
3191,63.82,2501
3192,63.84,2096
3193,63.86,1763
3194,63.88,1531
3195,63.9,1431
3196,63.92,1486
3197,63.940000000000005,1665
3198,63.96,1866
3199,63.980000000000004,1991
3200,64.0,1943
3201,64.02,1712
3202,64.04,1329
3203,64.06,941
3204,64.08,655
3205,64.1,511
3206,64.12,483
3207,64.14,578
3208,64.16,880
3209,64.18,1486
3210,64.2,2273
3211,64.22,3231
3212,64.24,4095
3213,64.26,4095
3214,64.28,4095
3215,64.3,4095
3216,64.32000000000001,4095
3217,64.34,3451
3218,64.36,2806
3219,64.38,2505
3220,64.4,2335
3221,64.42,2303
3222,64.44,2343
3223,64.46000000000001,2394
3224,64.48,2384
3225,64.5,2254
3226,64.52,1970
3227,64.54,1636
3228,64.56,1323
3229,64.58,1079
3230,64.6,907
3231,64.62,880
3232,64.64,1119
3233,64.66,1664
3234,64.68,2430
3235,64.7,3583
3236,64.72,4095
3237,64.74,4095
3238,64.76,4095
3239,64.78,4095
3240,64.8,3474
3241,64.82000000000001,2571
3242,64.84,2014
3243,64.86,1641
3244,64.88,1459
3245,64.9,1411
3246,64.92,1406
3247,64.94,1388
3248,64.96000000000001,1339
3249,64.98,1275
3250,65.0,1199
3251,65.02,1154
3252,65.04,1134
3253,65.06,1119
3254,65.08,1119
3255,65.1,1190
3256,65.12,1423
3257,65.14,1865
3258,65.16,2421
3259,65.18,3093
3260,65.2,3966
3261,65.22,4095
3262,65.24,3890
3263,65.26,3071
3264,65.28,2432
3265,65.3,1898
3266,65.32000000000001,1456
3267,65.34,1168
3268,65.36,1037
3269,65.38,987
3270,65.4,994
3271,65.42,1023
3272,65.44,1017
3273,65.46000000000001,976
3274,65.48,915
3275,65.5,839
3276,65.52,766
3277,65.54,704
3278,65.56,652
3279,65.58,629
3280,65.6,722
3281,65.62,1052
3282,65.64,1579
3283,65.66,2115
3284,65.68,2529
3285,65.7,2707
3286,65.72,2574
3287,65.74,2221
3288,65.76,1788
3289,65.78,1385
3290,65.8,1046
3291,65.82000000000001,793
3292,65.84,695
3293,65.86,855
3294,65.88,1232
3295,65.9,1639
3296,65.92,1909
3297,65.94,2006
3298,65.96000000000001,1930
3299,65.98,1712
3300,66.0,1435
3301,66.02,1223
3302,66.04,1122
3303,66.06,1133
3304,66.08,1268
3305,66.1,1647
3306,66.12,2246
3307,66.14,3066
3308,66.16,4095
3309,66.18,4095
3310,66.2,4095
3311,66.22,4095
3312,66.24,3153
3313,66.26,2381
3314,66.28,1725
3315,66.3,1232
3316,66.32000000000001,962
3317,66.34,873
3318,66.36,905
3319,66.38,1008
3320,66.4,1166
3321,66.42,1344
3322,66.44,1469
3323,66.46000000000001,1547
3324,66.48,1594
3325,66.5,1644
3326,66.52,1670
3327,66.54,1654
3328,66.56,1680
3329,66.58,1872
3330,66.6,2334
3331,66.62,3099
3332,66.64,4095
3333,66.66,4095
3334,66.68,4095
3335,66.7,3602
3336,66.72,2645
3337,66.74,2002
3338,66.76,1447
3339,66.78,1047
3340,66.8,832
3341,66.82000000000001,869
3342,66.84,1065
3343,66.86,1236
3344,66.88,1337
3345,66.9,1377
3346,66.92,1426
3347,66.94,1425
3348,66.96000000000001,1313
3349,66.98,1267
3350,67.0,1265
3351,67.02,1248
3352,67.04,1198
3353,67.06,1285
3354,67.08,1682
3355,67.1,2338
3356,67.12,3201
3357,67.14,4095
3358,67.16,4095
3359,67.18,4095
3360,67.2,4095
3361,67.22,4095
3362,67.24,3250
3363,67.26,2510
3364,67.28,2026
3365,67.3,1702
3366,67.32000000000001,1491
3367,67.34,1374
3368,67.36,1292
3369,67.38,1231
3370,67.4,1119
3371,67.42,993
3372,67.44,689
3373,67.46000000000001,406
3374,67.48,272
3375,67.5,375
3376,67.52,597
3377,67.54,0
3378,67.56,4095
3379,67.58,4095
3380,67.6,4095
3381,67.62,4095
3382,67.64,4095
3383,67.66,2533
3384,67.68,1578
3385,67.7,959
3386,67.72,522
3387,67.74,123
3388,67.76,0
3389,67.78,82
3390,67.8,355
3391,67.82000000000001,695
3392,67.84,1011
3393,67.86,1271
3394,67.88,1424
3395,67.9,1437
3396,67.92,1360
3397,67.94,1219
3398,67.96000000000001,1068
3399,67.98,918
3400,68.0,775
3401,68.02,1199
3402,68.04,1664
3403,68.06,2192
3404,68.08,2715
3405,68.1,3147
3406,68.12,3211
3407,68.14,2866
3408,68.16,2403
3409,68.18,1872
3410,68.2,1360
3411,68.22,965
3412,68.24,732
3413,68.26,639
3414,68.28,645
3415,68.3,720
3416,68.32000000000001,778
3417,68.34,711
3418,68.36,490
3419,68.38,194
3420,68.4,0
3421,68.42,0
3422,68.44,0
3423,68.46000000000001,0
3424,68.48,259
3425,68.5,927
3426,68.52,1664
3427,68.54,2320
3428,68.56,2785
3429,68.58,2930
3430,68.60000000000001,2651
3431,68.62,2146
3432,68.64,1551
3433,68.66,978
3434,68.68,577
3435,68.7,373
3436,68.72,349
3437,68.74,461
3438,68.76,666
3439,68.78,848
3440,68.8,974
3441,68.82000000000001,1009
3442,68.84,947
3443,68.86,848
3444,68.88,797
3445,68.9,805
3446,68.92,849
3447,68.94,934
3448,68.96000000000001,1171
3449,68.98,1554
3450,69.0,1966
3451,69.02,2334
3452,69.04,2515
3453,69.06,2480
3454,69.08,2224
3455,69.10000000000001,1825
3456,69.12,1427
3457,69.14,1088
3458,69.16,805
3459,69.18,593
3460,69.2,477
3461,69.22,482
3462,69.24,593
3463,69.26,752
3464,69.28,865
3465,69.3,916
3466,69.32000000000001,957
3467,69.34,1023
3468,69.36,1121
3469,69.38,1206
3470,69.4,1283
3471,69.42,1375
3472,69.44,1534
3473,69.46000000000001,1776
3474,69.48,2005
3475,69.5,2159
3476,69.52,2166
3477,69.54,2030
3478,69.56,1831
3479,69.58,1622
3480,69.60000000000001,1421
3481,69.62,1252
3482,69.64,1183
3483,69.66,1237
3484,69.68,1379
3485,69.7,1520
3486,69.72,1621
3487,69.74,1643
3488,69.76,1586
3489,69.78,1530
3490,69.8,1467
3491,69.82000000000001,1418
3492,69.84,1415
3493,69.86,1411
3494,69.88,1434
3495,69.9,1555
3496,69.92,1792
3497,69.94,2083
3498,69.96000000000001,2274
3499,69.98,2288
3500,70.0,2099
3501,70.02,1786
3502,70.04,1447
3503,70.06,1268
3504,70.08,1344
3505,70.10000000000001,1543
3506,70.12,1767
3507,70.14,1971
3508,70.16,2135
3509,70.18,2226
3510,70.2,2234
3511,70.22,2143
3512,70.24,1955
3513,70.26,1705
3514,70.28,1471
3515,70.3,1315
3516,70.32000000000001,1251
3517,70.34,1268
3518,70.36,1382
3519,70.38,1616
3520,70.4,1865
3521,70.42,2124
3522,70.44,2416
3523,70.46000000000001,2517
3524,70.48,2377
3525,70.5,2077
3526,70.52,1754
3527,70.54,1521
3528,70.56,1413
3529,70.58,1413
3530,70.60000000000001,1495
3531,70.62,1638
3532,70.64,1738
3533,70.66,1773
3534,70.68,1759
3535,70.7,1725
3536,70.72,1687
3537,70.74,1629
3538,70.76,1552
3539,70.78,1466
3540,70.8,1437
3541,70.82000000000001,1490
3542,70.84,1641
3543,70.86,1852
3544,70.88,2057
3545,70.9,2181
3546,70.92,2185
3547,70.94,2112
3548,70.96000000000001,2003
3549,70.98,1877
3550,71.0,1787
3551,71.02,1731
3552,71.04,1703
3553,71.06,1705
3554,71.08,1698
3555,71.10000000000001,1677
3556,71.12,1722
3557,71.14,1801
3558,71.16,1823
3559,71.18,1807
3560,71.2,1730
3561,71.22,1600
3562,71.24,1395
3563,71.26,1225
3564,71.28,1158
3565,71.3,1223
3566,71.32000000000001,1424
3567,71.34,1683
3568,71.36,1866
3569,71.38,2224
3570,71.4,2512
3571,71.42,2534
3572,71.44,2366
3573,71.46000000000001,2122
3574,71.48,1823
3575,71.5,1551
3576,71.52,1359
3577,71.54,1319
3578,71.56,1394
3579,71.58,1552
3580,71.60000000000001,1660
3581,71.62,1672
3582,71.64,1630
3583,71.66,1614
3584,71.68,1630
3585,71.7,1712
3586,71.72,1971
3587,71.74,2448
3588,71.76,3280
3589,71.78,4095
3590,71.8,4095
3591,71.82000000000001,4095
3592,71.84,4095
3593,71.86,4095
3594,71.88,4095
3595,71.9,3815
3596,71.92,2809
3597,71.94,2320
3598,71.96000000000001,2035
3599,71.98,1961
3600,72.0,2042
3601,72.02,2175
3602,72.04,2253
3603,72.06,2286
3604,72.08,2298
3605,72.10000000000001,2283
3606,72.12,2269
3607,72.14,2238
3608,72.16,2143
3609,72.18,2019
3610,72.2,1971
3611,72.22,2093
3612,72.24,2398
3613,72.26,2839
3614,72.28,3419
3615,72.3,3861
3616,72.32000000000001,3870
3617,72.34,3472
3618,72.36,2933
3619,72.38,2478
3620,72.4,2081
3621,72.42,1750
3622,72.44,1582
3623,72.46000000000001,1585
3624,72.48,1730
3625,72.5,1947
3626,72.52,2183
3627,72.54,2333
3628,72.56,2362
3629,72.58,2311
3630,72.60000000000001,2239
3631,72.62,2203
3632,72.64,2224
3633,72.66,2352
3634,72.68,2657
3635,72.7,3305
3636,72.72,4095
3637,72.74,4095
3638,72.76,4095
3639,72.78,4095
3640,72.8,4095
3641,72.82000000000001,4095
3642,72.84,4095
3643,72.86,4095
3644,72.88,3815
3645,72.9,3009
3646,72.92,2665
3647,72.94,2514
3648,72.96000000000001,2458
3649,72.98,2432
3650,73.0,2413
3651,73.02,2433
3652,73.04,2483
3653,73.06,2544
3654,73.08,2589
3655,73.10000000000001,2599
3656,73.12,2594
3657,73.14,2693
3658,73.16,3098
3659,73.18,4095
3660,73.2,4095
3661,73.22,4095
3662,73.24,4095
3663,73.26,4095
3664,73.28,4095
3665,73.3,4095
3666,73.32000000000001,4095
3667,73.34,4095
3668,73.36,4095
3669,73.38,4095
3670,73.4,3515
3671,73.42,2951
3672,73.44,2657
3673,73.46000000000001,2459
3674,73.48,2337
3675,73.5,2266
3676,73.52,2229
3677,73.54,2219
3678,73.56,2213
3679,73.58,2246
3680,73.60000000000001,2427
3681,73.62,2861
3682,73.64,4014
3683,73.66,4095
3684,73.68,4095
3685,73.7,4095
3686,73.72,4095
3687,73.74,4095
3688,73.76,4095
3689,73.78,4095
3690,73.8,4095
3691,73.82000000000001,4095
3692,73.84,2736
3693,73.86,2097
3694,73.88,1757
3695,73.9,1664
3696,73.92,1666
3697,73.94,1657
3698,73.96000000000001,1584
3699,73.98,1456
3700,74.0,1285
3701,74.02,1119
3702,74.04,1019
3703,74.06,1084
3704,74.08,1407
3705,74.10000000000001,2005
3706,74.12,2785
3707,74.14,4051
3708,74.16,4095
3709,74.18,4095
3710,74.2,4095
3711,74.22,4095
3712,74.24,3147
3713,74.26,2457
3714,74.28,1978
3715,74.3,1639
3716,74.32000000000001,1449
3717,74.34,1396
3718,74.36,1410
3719,74.38,1385
3720,74.4,1107
3721,74.42,603
3722,74.44,86
3723,74.46000000000001,0
3724,74.48,0
3725,74.5,0
3726,74.52,0
3727,74.54,0
3728,74.56,487
3729,74.58,2194
3730,74.60000000000001,4095
3731,74.62,4095
3732,74.64,4095
3733,74.66,4095
3734,74.68,4095
3735,74.7,4095
3736,74.72,2123
3737,74.74,503
3738,74.76,0
3739,74.78,0
3740,74.8,0
3741,74.82000000000001,0
3742,74.84,0
3743,74.86,0
3744,74.88,0
3745,74.9,0
3746,74.92,0
3747,74.94,0
3748,74.96000000000001,0
3749,74.98,0
3750,75.0,0
3751,75.02,197
3752,75.04,2160
3753,75.06,4095
3754,75.08,4095
3755,75.10000000000001,4095
3756,75.12,4095
3757,75.14,3963
3758,75.16,2262
3759,75.18,1123
3760,75.2,205
3761,75.22,0
3762,75.24,0
3763,75.26,0
3764,75.28,0
3765,75.3,303
3766,75.32000000000001,753
3767,75.34,1203
3768,75.36,1750
3769,75.38,2287
3770,75.4,2759
3771,75.42,3099
3772,75.44,3180
3773,75.46000000000001,3261
3774,75.48,3678
3775,75.5,4095
3776,75.52,4095
3777,75.54,4095
3778,75.56,4095
3779,75.58,4095
3780,75.60000000000001,4095
3781,75.62,4095
3782,75.64,4095
3783,75.66,4095
3784,75.68,3810
3785,75.7,2957
3786,75.72,2746
3787,75.74,2630
3788,75.76,2480
3789,75.78,2251
3790,75.8,1895
3791,75.82000000000001,1566
3792,75.84,1408
3793,75.86,1401
3794,75.88,1295
3795,75.9,1200
3796,75.92,1107
3797,75.94,1194
3798,75.96000000000001,1596
3799,75.98,2241
3800,76.0,3130
3801,76.02,4095
3802,76.04,4095
3803,76.06,4095
3804,76.08,4095
3805,76.10000000000001,3108
3806,76.12,2465
3807,76.14,2186
3808,76.16,2065
3809,76.18,1874
3810,76.2,1682
3811,76.22,1648
3812,76.24,1808
3813,76.26,2053
3814,76.28,2247
3815,76.3,2368
3816,76.32000000000001,2395
3817,76.34,2354
3818,76.36,2322
3819,76.38,2281
3820,76.4,2272
3821,76.42,2499
3822,76.44,3023
3823,76.46000000000001,3985
3824,76.48,4095
3825,76.5,4095
3826,76.52,4095
3827,76.54,4095
3828,76.56,4095
3829,76.58,3769
3830,76.60000000000001,2604
3831,76.62,1751
3832,76.64,982
3833,76.66,544
3834,76.68,537
3835,76.7,842
3836,76.72,1325
3837,76.74,1857
3838,76.76,2320
3839,76.78,2654
3840,76.8,2890
3841,76.82000000000001,2997
3842,76.84,2843
3843,76.86,2637
3844,76.88,2655
3845,76.9,3135
3846,76.92,4095
3847,76.94,4095
3848,76.96000000000001,4095
3849,76.98,4095
3850,77.0,4095
3851,77.02,4095
3852,77.04,3994
3853,77.06,2374
3854,77.08,1391
3855,77.10000000000001,755
3856,77.12,592
3857,77.14,810
3858,77.16,1362
3859,77.18,1954
3860,77.2,2231
3861,77.22,2067
3862,77.24,1635
3863,77.26,1266
3864,77.28,1090
3865,77.3,1059
3866,77.32000000000001,1081
3867,77.34,1161
3868,77.36,1494
3869,77.38,2304
3870,77.4,4095
3871,77.42,4095
3872,77.44,4095
3873,77.46000000000001,4095
3874,77.48,4095
3875,77.5,4095
3876,77.52,4095
3877,77.54,3989
3878,77.56,2469
3879,77.58,1683
3880,77.60000000000001,1200
3881,77.62,1120
3882,77.64,1393
3883,77.66,1872
3884,77.68,2352
3885,77.7,2649
3886,77.72,2609
3887,77.74,2273
3888,77.76,1846
3889,77.78,1509
3890,77.8,1323
3891,77.82000000000001,1275
3892,77.84,1469
3893,77.86,1949
3894,77.88,2576
3895,77.9,3302
3896,77.92,3872
3897,77.94,3709
3898,77.96000000000001,2982
3899,77.98,2327
3900,78.0,1723
3901,78.02,1216
3902,78.04,805
3903,78.06,503
3904,78.08,326
3905,78.10000000000001,255
3906,78.12,249
3907,78.14,290
3908,78.16,373
3909,78.18,485
3910,78.2,608
3911,78.22,688
3912,78.24,717
3913,78.26,720
3914,78.28,752
3915,78.3,940
3916,78.32000000000001,1364
3917,78.34,2019
3918,78.36,2791
3919,78.38,3887
3920,78.4,4095
3921,78.42,4095
3922,78.44,4095
3923,78.46000000000001,3154
3924,78.48,2335
3925,78.5,1609
3926,78.52,955
3927,78.54,508
3928,78.56,325
3929,78.58,362
3930,78.60000000000001,547
3931,78.62,842
3932,78.64,1197
3933,78.66,1463
3934,78.68,1552
3935,78.7,1486
3936,78.72,1367
3937,78.74,1214
3938,78.76,1059
3939,78.78,1009
3940,78.8,1238
3941,78.82000000000001,1681
3942,78.84,2170
3943,78.86,2469
3944,78.88,2471
3945,78.9,2205
3946,78.92,1757
3947,78.94,1215
3948,78.96000000000001,697
3949,78.98,299
3950,79.0,90
3951,79.02,48
3952,79.04,163
3953,79.06,365
3954,79.08,588
3955,79.10000000000001,769
3956,79.12,897
3957,79.14,951
3958,79.16,893
3959,79.18,783
3960,79.2,653
3961,79.22,593
3962,79.24,752
3963,79.26,1214
3964,79.28,1901
3965,79.3,2602
3966,79.32000000000001,3265
3967,79.34,3570
3968,79.36,3172
3969,79.38,2518
3970,79.4,1873
3971,79.42,1204
3972,79.44,640
3973,79.46000000000001,270
3974,79.48,91
3975,79.5,81
3976,79.52,162
3977,79.54,240
3978,79.56,283
3979,79.58,304
3980,79.60000000000001,295
3981,79.62,251
3982,79.64,190
3983,79.66,122
3984,79.68,92
3985,79.7,191
3986,79.72,491
3987,79.74,1031
3988,79.76,1678
3989,79.78,2265
3990,79.8,2671
3991,79.82000000000001,2800
3992,79.84,2635
3993,79.86,2270
3994,79.88,1848
3995,79.9,1448
3996,79.92,1137
3997,79.94,919
3998,79.96000000000001,826
3999,79.98,909
4000,80.0,1135
4001,80.02,1395
4002,80.04,1575
4003,80.06,1699
4004,80.08,1761
4005,80.10000000000001,1747
4006,80.12,1668
4007,80.14,1571
4008,80.16,1428
4009,80.18,1377
4010,80.2,1520
4011,80.22,1899
4012,80.24,2397
4013,80.26,2879
4014,80.28,3213
4015,80.3,3159
4016,80.32000000000001,2726
4017,80.34,2240
4018,80.36,1753
4019,80.38,1349
4020,80.4,1107
4021,80.42,1014
4022,80.44,1085
4023,80.46000000000001,1238
4024,80.48,1423
4025,80.5,1587
4026,80.52,1707
4027,80.54,1741
4028,80.56,1676
4029,80.58,1531
4030,80.60000000000001,1389
4031,80.62,1288
4032,80.64,1303
4033,80.66,1531
4034,80.68,1990
4035,80.7,2594
4036,80.72,3390
4037,80.74,4095
4038,80.76,4095
4039,80.78,3609
4040,80.8,2877
4041,80.82000000000001,2323
4042,80.84,1846
4043,80.86,1497
4044,80.88,1345
4045,80.9,1373
4046,80.92,1524
4047,80.94,1744
4048,80.96000000000001,1936
4049,80.98,2047
4050,81.0,2067
4051,81.02,1984
4052,81.04,1840
4053,81.06,1695
4054,81.08,1616
4055,81.10000000000001,1702
4056,81.12,2028
4057,81.14,2591
4058,81.16,3506
4059,81.18,4095
4060,81.2,4095
4061,81.22,4095
4062,81.24,4095
4063,81.26,3419
4064,81.28,2528
4065,81.3,1867
4066,81.32000000000001,1318
4067,81.34,974
4068,81.36,849
4069,81.38,903
4070,81.4,1067
4071,81.42,1238
4072,81.44,1303
4073,81.46000000000001,1236
4074,81.48,1083
4075,81.5,896
4076,81.52,754
4077,81.54,722
4078,81.56,913
4079,81.58,1392
4080,81.60000000000001,2060
4081,81.62,2757
4082,81.64,3507
4083,81.66,3849
4084,81.68,3504
4085,81.7,2843
4086,81.72,2279
4087,81.74,1744
4088,81.76,1264
4089,81.78,899
4090,81.8,701
4091,81.82000000000001,674
4092,81.84,784
4093,81.86,966
4094,81.88,1134
4095,81.9,1251
4096,81.92,1326
4097,81.94,1327
4098,81.96000000000001,1237
4099,81.98,1093
4100,82.0,997
4101,82.02,1111
4102,82.04,1476
4103,82.06,2034
4104,82.08,2646
4105,82.10000000000001,3235
4106,82.12,3522
4107,82.14,3201
4108,82.16,2608
4109,82.18,2003
4110,82.2,1408
4111,82.22,938
4112,82.24,673
4113,82.26,597
4114,82.28,706
4115,82.3,931
4116,82.32000000000001,1187
4117,82.34,1383
4118,82.36,1466
4119,82.38,1443
4120,82.4,1374
4121,82.42,1296
4122,82.44,1243
4123,82.46000000000001,1217
4124,82.48,1345
4125,82.5,1734
4126,82.52,2331
4127,82.54,2963
4128,82.56,3494
4129,82.58,3466
4130,82.60000000000001,2975
4131,82.62,2417
4132,82.64,1835
4133,82.66,1305
4134,82.68,939
4135,82.7,802
4136,82.72,820
4137,82.74,942
4138,82.76,1126
4139,82.78,1287
4140,82.8,1366
4141,82.82000000000001,1359
4142,82.84,1287
4143,82.86,1216
4144,82.88,1150
4145,82.9,1079
4146,82.92,1081
4147,82.94,1264
4148,82.96000000000001,1695
4149,82.98,2288
4150,83.0,2933
4151,83.02,3573
4152,83.04,3750
4153,83.06,3306
4154,83.08,2689
4155,83.10000000000001,2147
4156,83.12,1634
4157,83.14,1213
4158,83.16,987
4159,83.18,971
4160,83.2,1099
4161,83.22,1294
4162,83.24,1475
4163,83.26,1595
4164,83.28,1618
4165,83.3,1527
4166,83.32000000000001,1378
4167,83.34,1194
4168,83.36,1083
4169,83.38,1202
4170,83.4,1617
4171,83.42,2240
4172,83.44,2902
4173,83.46000000000001,3653
4174,83.48,3974
4175,83.5,3631
4176,83.52,2907
4177,83.54,2305
4178,83.56,1755
4179,83.58,1279
4180,83.60000000000001,955
4181,83.62,839
4182,83.64,925
4183,83.66,1133
4184,83.68,1343
4185,83.7,1507
4186,83.72,1619
4187,83.74,1709
4188,83.76,1741
4189,83.78,1682
4190,83.8,1584
4191,83.82000000000001,1599
4192,83.84,1840
4193,83.86,2326
4194,83.88,3019
4195,83.9,4095
4196,83.92,4095
4197,83.94,4095
4198,83.96000000000001,3842
4199,83.98,2789
4200,84.0,2031
4201,84.02,1445
4202,84.04,1078
4203,84.06,925
4204,84.08,963
4205,84.10000000000001,1162
4206,84.12,1388
4207,84.14,1561
4208,84.16,1616
4209,84.18,1549
4210,84.2,1379
4211,84.22,1194
4212,84.24,1030
4213,84.26,965
4214,84.28,1072
4215,84.3,1443
4216,84.32000000000001,2053
4217,84.34,2768
4218,84.36,3806
4219,84.38,4095
4220,84.4,4095
4221,84.42,3991
4222,84.44,2979
4223,84.46000000000001,2279
4224,84.48,1677
4225,84.5,1202
4226,84.52,941
4227,84.54,939
4228,84.56,1113
4229,84.58,1315
4230,84.60000000000001,1454
4231,84.62,1455
4232,84.64,1427
4233,84.66,1413
4234,84.68,1447
4235,84.7,1476
4236,84.72,1507
4237,84.74,1637
4238,84.76,1984
4239,84.78,2620
4240,84.8,3824
4241,84.82000000000001,4095
4242,84.84,4095
4243,84.86,4095
4244,84.88,4095
4245,84.9,4095
4246,84.92,3217
4247,84.94,2267
4248,84.96000000000001,1633
4249,84.98,1275
4250,85.0,1199
4251,85.02,1285
4252,85.04,1419
4253,85.06,1547
4254,85.08,1602
4255,85.10000000000001,1574
4256,85.12,1472
4257,85.14,1365
4258,85.16,1258
4259,85.18,1199
4260,85.2,1307
4261,85.22,1712
4262,85.24,2384
4263,85.26,3329
4264,85.28,4095
4265,85.3,4095
4266,85.32000000000001,4095
4267,85.34,4016
4268,85.36,2879
4269,85.38,2166
4270,85.4,1598
4271,85.42,1235
4272,85.44,1121
4273,85.46000000000001,1216
4274,85.48,1414
4275,85.5,1639
4276,85.52,1814
4277,85.54,1899
4278,85.56,1852
4279,85.58,1707
4280,85.60000000000001,1515
4281,85.62,1377
4282,85.64,1341
4283,85.66,1517
4284,85.68,2019
4285,85.7,2757
4286,85.72,4095
4287,85.74,4095
4288,85.76,4095
4289,85.78,4095
4290,85.8,4095
4291,85.82000000000001,4095
4292,85.84,4095
4293,85.86,3344
4294,85.88,2377
4295,85.9,1793
4296,85.92,1472
4297,85.94,1421
4298,85.96000000000001,1558
4299,85.98,1765
4300,86.0,1941
4301,86.02,1994
4302,86.04,1831
4303,86.06,1516
4304,86.08,1163
4305,86.10000000000001,896
4306,86.12,915
4307,86.14,1338
4308,86.16,2074
4309,86.18,2917
4310,86.2,3959
4311,86.22,4095
4312,86.24,4048
4313,86.26,3181
4314,86.28,2480
4315,86.3,1937
4316,86.32000000000001,1499
4317,86.34,1229
4318,86.36,1179
4319,86.38,1329
4320,86.4,1615
4321,86.42,1895
4322,86.44,2064
4323,86.46000000000001,2080
4324,86.48,1939
4325,86.5,1734
4326,86.52,1535
4327,86.54,1379
4328,86.56,1293
4329,86.58,1367
4330,86.60000000000001,1742
4331,86.62,2391
4332,86.64,3307
4333,86.66,4095
4334,86.68,4095
4335,86.7,4095
4336,86.72,2999
4337,86.74,2185
4338,86.76,1437
4339,86.78,935
4340,86.8,781
4341,86.82000000000001,960
4342,86.84,1358
4343,86.86,1883
4344,86.88,2445
4345,86.9,2955
4346,86.92,3309
4347,86.94,3242
4348,86.96000000000001,2801
4349,86.98,2176
4350,87.0,1308
4351,87.02,446
4352,87.04,0
4353,87.06,0
4354,87.08,0
4355,87.10000000000001,121
4356,87.12,1392
4357,87.14,2938
4358,87.16,4095
4359,87.18,4095
4360,87.2,4095
4361,87.22,4095
4362,87.24,4095
4363,87.26,4095
4364,87.28,4095
4365,87.3,4095
4366,87.32000000000001,4095
4367,87.34,2989
4368,87.36,2288
4369,87.38,1966
4370,87.4,1925
4371,87.42,2179
4372,87.44,2570
4373,87.46000000000001,2958
4374,87.48,3152
4375,87.5,2997
4376,87.52,2589
4377,87.54,2054
4378,87.56,1491
4379,87.58,1191
4380,87.60000000000001,1360
4381,87.62,1862
4382,87.64,2405
4383,87.66,2763
4384,87.68,2704
4385,87.7,2238
4386,87.72,1550
4387,87.74,784
4388,87.76,155
4389,87.78,0
4390,87.8,0
4391,87.82000000000001,185
4392,87.84,747
4393,87.86,1339
4394,87.88,1787
4395,87.9,1997
4396,87.92,1989
4397,87.94,1776
4398,87.96000000000001,1434
4399,87.98,1059
4400,88.0,731
4401,88.02,555
4402,88.04,673
4403,88.06,1216
4404,88.08,2091
4405,88.10000000000001,3153
4406,88.12,4095
4407,88.14,4095
4408,88.16,4095
4409,88.18,4047
4410,88.2,2739
4411,88.22,1950
4412,88.24,1306
4413,88.26,916
4414,88.28,833
4415,88.3,913
4416,88.32000000000001,1089
4417,88.34,1361
4418,88.36,1750
4419,88.38,2245
4420,88.4,2842
4421,88.42,3426
4422,88.44,3718
4423,88.46000000000001,3682
4424,88.48,3392
4425,88.5,3050
4426,88.52,2837
4427,88.54,2865
4428,88.56,3163
4429,88.58,3827
4430,88.60000000000001,4095
4431,88.62,3983
4432,88.64,2922
4433,88.66,2043
4434,88.68,1138
4435,88.7,350
4436,88.72,0
4437,88.74,0
4438,88.76,0
4439,88.78,304
4440,88.8,1010
4441,88.82000000000001,1673
4442,88.84,2119
4443,88.86,2321
4444,88.88,2288
4445,88.9,2042
4446,88.92,1665
4447,88.94,1232
4448,88.96000000000001,905
4449,88.98,793
4450,89.0,863
4451,89.02,1226
4452,89.04,1967
4453,89.06,3053
4454,89.08,4095
4455,89.10000000000001,4095
4456,89.12,4095
4457,89.14,4095
4458,89.16,4095
4459,89.18,4095
4460,89.2,4095
4461,89.22,3562
4462,89.24,2704
4463,89.26,2244
4464,89.28,1961
4465,89.3,1854
4466,89.32000000000001,1893
4467,89.34,2000
4468,89.36,2064
4469,89.38,1985
4470,89.4,1820
4471,89.42,1671
4472,89.44,1488
4473,89.46000000000001,1237
4474,89.48,976
4475,89.5,891
4476,89.52,1114
4477,89.54,1733
4478,89.56,2635
4479,89.58,3994
4480,89.60000000000001,4095
4481,89.62,4095
4482,89.64,3405
4483,89.66,2183
4484,89.68,1083
4485,89.7,153
4486,89.72,0
4487,89.74,0
4488,89.76,0
4489,89.78,0
4490,89.8,65
4491,89.82000000000001,483
4492,89.84,784
4493,89.86,928
4494,89.88,930
4495,89.9,883
4496,89.92,850
4497,89.94,880
4498,89.96000000000001,1041
4499,89.98,1374
4500,90.0,1937
4501,90.02,2801
4502,90.04,4095
4503,90.06,4095
4504,90.08,4095
4505,90.10000000000001,4095
4506,90.12,4095
4507,90.14,4095
4508,90.16,4095
4509,90.18,4095
4510,90.2,4095
4511,90.22,4095
4512,90.24,4095
4513,90.26,4095
4514,90.28,4095
4515,90.3,3088
4516,90.32000000000001,1887
4517,90.34,955
4518,90.36,233
4519,90.38,0
4520,90.4,0
4521,90.42,0
4522,90.44,0
4523,90.46000000000001,0
4524,90.48,0
4525,90.5,0
4526,90.52,159
4527,90.54,1239
4528,90.56,2190
4529,90.58,2775
4530,90.60000000000001,2883
4531,90.62,2551
4532,90.64,2035
4533,90.66,1488
4534,90.68,1034
4535,90.7,735
4536,90.72,631
4537,90.74,699
4538,90.76,885
4539,90.78,1113
4540,90.8,1265
4541,90.82000000000001,1357
4542,90.84,1383
4543,90.86,1392
4544,90.88,1376
4545,90.9,1353
4546,90.92,1363
4547,90.94,1445
4548,90.96000000000001,1616
4549,90.98,1970
4550,91.0,2581
4551,91.02,3698
4552,91.04,4095
4553,91.06,4095
4554,91.08,4095
4555,91.10000000000001,4095
4556,91.12,4095
4557,91.14,2726
4558,91.16,1891
4559,91.18,1243
4560,91.2,880
4561,91.22,801
4562,91.24,880
4563,91.26,995
4564,91.28,1086
4565,91.3,1114
4566,91.32000000000001,1103
4567,91.34,1060
4568,91.36,974
4569,91.38,858
4570,91.4,726
4571,91.42,626
4572,91.44,637
4573,91.46000000000001,867
4574,91.48,1341
4575,91.5,1917
4576,91.52,2432
4577,91.54,2763
4578,91.56,2809
4579,91.58,2575
4580,91.60000000000001,2169
4581,91.62,1648
4582,91.64,1167
4583,91.66,821
4584,91.68,659
4585,91.7,688
4586,91.72,830
4587,91.74,948
4588,91.76,965
4589,91.78,879
4590,91.8,715
4591,91.82000000000001,560
4592,91.84,403
4593,91.86,333
4594,91.88,374
4595,91.9,577
4596,91.92,919
4597,91.94,1396
4598,91.96000000000001,1961
4599,91.98,2608
4600,92.0,3413
4601,92.02,4095
4602,92.04,4095
4603,92.06,3643
4604,92.08,2832
4605,92.10000000000001,2245
4606,92.12,1727
4607,92.14,1318
4608,92.16,1087
4609,92.18,1035
4610,92.2,1118
4611,92.22,1243
4612,92.24,1344
4613,92.26,1396
4614,92.28,1383
4615,92.3,1292
4616,92.32000000000001,1154
4617,92.34,1022
4618,92.36,937
4619,92.38,941
4620,92.4,1069
4621,92.42,1371
4622,92.44,1873
4623,92.46000000000001,2544
4624,92.48,3443
4625,92.5,4095
4626,92.52,4095
4627,92.54,3824
4628,92.56,2939
4629,92.58,2298
4630,92.60000000000001,1754
4631,92.62,1355
4632,92.64,1152
4633,92.66,1141
4634,92.68,1241
4635,92.7,1408
4636,92.72,1525
4637,92.74,1590
4638,92.76,1594
4639,92.78,1571
4640,92.8,1562
4641,92.82000000000001,1565
4642,92.84,1584
4643,92.86,1652
4644,92.88,1840
4645,92.9,2197
4646,92.92,2747
4647,92.94,3601
4648,92.96000000000001,4095
4649,92.98,4095
4650,93.0,3826
4651,93.02,2946
4652,93.04,2313
4653,93.06,1744
4654,93.08,1292
4655,93.10000000000001,1072
4656,93.12,1105
4657,93.14,1317
4658,93.16,1663
4659,93.18,2032
4660,93.2,2377
4661,93.22,2602
4662,93.24,2763
4663,93.26,2752
4664,93.28,2578
4665,93.3,2368
4666,93.32000000000001,2245
4667,93.34,2379
4668,93.36,2919
4669,93.38,4095
4670,93.4,4095
4671,93.42,4095
4672,93.44,4095
4673,93.46000000000001,4095
4674,93.48,4095
4675,93.5,4095
4676,93.52,4095
4677,93.54,4095
4678,93.56,4095
4679,93.58,4095
4680,93.60000000000001,4095
4681,93.62,4095
4682,93.64,4095
4683,93.66,2750
4684,93.68,1531
4685,93.7,573
4686,93.72,0
4687,93.74,0
4688,93.76,0
4689,93.78,0
4690,93.8,0
4691,93.82000000000001,0
4692,93.84,230
4693,93.86,1743
4694,93.88,3483
4695,93.9,4095
4696,93.92,4095
4697,93.94,4095
4698,93.96000000000001,4095
4699,93.98,4095
4700,94.0,4095
4701,94.02,4095
4702,94.04,2685
4703,94.06,1410
4704,94.08,528
4705,94.10000000000001,85
4706,94.12,0
4707,94.14,49
4708,94.16,217
4709,94.18,458
4710,94.2,746
4711,94.22,1053
4712,94.24,1360
4713,94.26,1739
4714,94.28,2224
4715,94.3,2809
4716,94.32000000000001,3682
4717,94.34,4095
4718,94.36,4095
4719,94.38,4095
4720,94.4,4095
4721,94.42,4095
4722,94.44,3066
4723,94.46000000000001,1383
4724,94.48,0
4725,94.5,0
4726,94.52,0
4727,94.54,0
4728,94.56,0
4729,94.58,0
4730,94.60000000000001,0
4731,94.62,0
4732,94.64,0
4733,94.66,0
4734,94.68,0
4735,94.7,0
4736,94.72,0
4737,94.74,0
4738,94.76,210
4739,94.78,953
4740,94.8,1818
4741,94.82000000000001,2645
4742,94.84,3578
4743,94.86,4095
4744,94.88,4095
4745,94.9,3408
4746,94.92,2674
4747,94.94,2162
4748,94.96000000000001,1826
4749,94.98,1712
4750,95.0,1727
4751,95.02,1828
4752,95.04,1962
4753,95.06,2037
4754,95.08,2006
4755,95.10000000000001,1902
4756,95.12,1778
4757,95.14,1645
4758,95.16,1469
4759,95.18,1298
4760,95.2,1250
4761,95.22,1449
4762,95.24,1955
4763,95.26,2672
4764,95.28,3706
4765,95.3,4095
4766,95.32000000000001,4095
4767,95.34,3134
4768,95.36,2343
4769,95.38,1665
4770,95.4,1072
4771,95.42,655
4772,95.44,467
4773,95.46000000000001,558
4774,95.48,833
4775,95.5,1174
4776,95.52,1442
4777,95.54,1609
4778,95.56,1675
4779,95.58,1674
4780,95.60000000000001,1628
4781,95.62,1583
4782,95.64,1558
4783,95.66,1611
4784,95.68,1830
4785,95.7,2299
4786,95.72,3034
4787,95.74000000000001,4095
4788,95.76,4095
4789,95.78,4095
4790,95.8,4095
4791,95.82000000000001,3344
4792,95.84,2443
4793,95.86,1819
4794,95.88,1371
4795,95.9,1104
4796,95.92,978
4797,95.94,989
4798,95.96000000000001,1131
4799,95.98,1328
4800,96.0,1457
4801,96.02,1477
4802,96.04,1441
4803,96.06,1366
4804,96.08,1269
4805,96.10000000000001,1136
4806,96.12,1015
4807,96.14,1040
4808,96.16,1338
4809,96.18,1921
4810,96.2,2638
4811,96.22,3489
4812,96.24000000000001,4083
4813,96.26,3843
4814,96.28,3046
4815,96.3,2407
4816,96.32000000000001,1847
4817,96.34,1424
4818,96.36,1243
4819,96.38,1297
4820,96.4,1488
4821,96.42,1701
4822,96.44,1873
4823,96.46000000000001,2003
4824,96.48,1972
4825,96.5,1759
4826,96.52,1466
4827,96.54,1179
4828,96.56,963
4829,96.58,855
4830,96.60000000000001,865
4831,96.62,1041
4832,96.64,1424
4833,96.66,2017
4834,96.68,2703
4835,96.7,3419
4836,96.72,3697
4837,96.74000000000001,3299
4838,96.76,2669
4839,96.78,2058
4840,96.8,1436
4841,96.82000000000001,938
4842,96.84,663
4843,96.86,622
4844,96.88,736
4845,96.9,906
4846,96.92,1089
4847,96.94,1232
4848,96.96000000000001,1343
4849,96.98,1378
4850,97.0,1310
4851,97.02,1200
4852,97.04,1089
4853,97.06,995
4854,97.08,938
4855,97.10000000000001,1030
4856,97.12,1378
4857,97.14,1963
4858,97.16,2632
4859,97.18,3424
4860,97.2,4038
4861,97.22,3871
4862,97.24000000000001,3135
4863,97.26,2446
4864,97.28,1840
4865,97.3,1309
4866,97.32000000000001,977
4867,97.34,899
4868,97.36,1073
4869,97.38,1341
4870,97.4,1597
4871,97.42,1725
4872,97.44,1728
4873,97.46000000000001,1647
4874,97.48,1534
4875,97.5,1437
4876,97.52,1379
4877,97.54,1370
4878,97.56,1441
4879,97.58,1625
4880,97.60000000000001,1979
4881,97.62,2510
4882,97.64,3270
4883,97.66,4095
4884,97.68,4095
4885,97.7,4095
4886,97.72,3554
4887,97.74000000000001,2768
4888,97.76,2214
4889,97.78,1692
4890,97.8,1292
4891,97.82000000000001,1072
4892,97.84,1015
4893,97.86,1088
4894,97.88,1216
4895,97.9,1315
4896,97.92,1323
4897,97.94,1232
4898,97.96000000000001,1125
4899,97.98,1055
4900,98.0,977
4901,98.02,927
4902,98.04,901
4903,98.06,1009
4904,98.08,1392
4905,98.10000000000001,2037
4906,98.12,2864
4907,98.14,4095
4908,98.16,4095
4909,98.18,4095
4910,98.2,4095
4911,98.22,3097
4912,98.24000000000001,2375
4913,98.26,1811
4914,98.28,1365
4915,98.3,1105
4916,98.32000000000001,1038
4917,98.34,1125
4918,98.36,1318
4919,98.38,1504
4920,98.4,1603
4921,98.42,1598
4922,98.44,1519
4923,98.46000000000001,1383
4924,98.48,1232
4925,98.5,1098
4926,98.52,1035
4927,98.54,1085
4928,98.56,1271
4929,98.58,1683
4930,98.60000000000001,2288
4931,98.62,3093
4932,98.64,4095
4933,98.66,4095
4934,98.68,4095
4935,98.7,3760
4936,98.72,2770
4937,98.74000000000001,2112
4938,98.76,1509
4939,98.78,1072
4940,98.8,813
4941,98.82000000000001,751
4942,98.84,878
4943,98.86,1081
4944,98.88,1259
4945,98.9,1381
4946,98.92,1439
4947,98.94,1470
4948,98.96000000000001,1469
4949,98.98,1462
4950,99.0,1463
4951,99.02,1478
4952,99.04,1488
4953,99.06,1533
4954,99.08,1738
4955,99.10000000000001,2139
4956,99.12,2659
4957,99.14,3318
4958,99.16,3759
4959,99.18,3518
4960,99.2,2842
4961,99.22,2195
4962,99.24000000000001,1521
4963,99.26,919
4964,99.28,528
4965,99.3,349
4966,99.32000000000001,412
4967,99.34,614
4968,99.36,831
4969,99.38,1006
4970,99.4,1104
4971,99.42,1134
4972,99.44,1088
4973,99.46000000000001,981
4974,99.48,881
4975,99.5,812
4976,99.52,785
4977,99.54,801
4978,99.56,938
4979,99.58,1322
4980,99.60000000000001,1942
4981,99.62,2677
4982,99.64,3511
4983,99.66,3987
4984,99.68,3663
4985,99.7,2960
4986,99.72,2336
4987,99.74000000000001,1773
4988,99.76,1296
4989,99.78,1019
4990,99.8,961
4991,99.82000000000001,1075
4992,99.84,1273
4993,99.86,1488
4994,99.88,1639
4995,99.9,1713
4996,99.92,1691
4997,99.94,1618
4998,99.96000000000001,1547
4999,99.98,1472
5000,100.0,1435
5001,100.02,1436
5002,100.04,1488
5003,100.06,1723
5004,100.08,2178
5005,100.10000000000001,2832
5006,100.12,3866
5007,100.14,4095
5008,100.16,4095
5009,100.18,3807
5010,100.2,2899
5011,100.22,2271
5012,100.24000000000001,1712
5013,100.26,1264
5014,100.28,995
5015,100.3,911
5016,100.32000000000001,977
5017,100.34,1131
5018,100.36,1264
5019,100.38,1328
5020,100.4,1318
5021,100.42,1249
5022,100.44,1151
5023,100.46000000000001,1061
5024,100.48,982
5025,100.5,954
5026,100.52,974
5027,100.54,1107
5028,100.56,1438
5029,100.58,1984
5030,100.60000000000001,2670
5031,100.62,3551
5032,100.64,4095
5033,100.66,4095
5034,100.68,3372
5035,100.7,2644
5036,100.72,2063
5037,100.74000000000001,1520
5038,100.76,1101
5039,100.78,849
5040,100.8,801
5041,100.82000000000001,912
5042,100.84,1073
5043,100.86,1206
5044,100.88,1271
5045,100.9,1287
5046,100.92,1278
5047,100.94,1235
5048,100.96000000000001,1154
5049,100.98,1040
5050,101.0,962
5051,101.02,973
5052,101.04,1105
5053,101.06,1438
5054,101.08,1979
5055,101.10000000000001,2614
5056,101.12,3354
5057,101.14,3947
5058,101.16,3838
5059,101.18,3216
5060,101.2,2539
5061,101.22,1942
5062,101.24000000000001,1390
5063,101.26,1002
5064,101.28,851
5065,101.3,949
5066,101.32000000000001,1190
5067,101.34,1456
5068,101.36,1681
5069,101.38,1838
5070,101.4,1911
5071,101.42,1890
5072,101.44,1778
5073,101.46000000000001,1604
5074,101.48,1424
5075,101.5,1325
5076,101.52,1333
5077,101.54,1502
5078,101.56,1869
5079,101.58,2394
5080,101.60000000000001,3106
5081,101.62,3951
5082,101.64,4095
5083,101.66,3744
5084,101.68,2949
5085,101.7,2314
5086,101.72,1725
5087,101.74000000000001,1216
5088,101.76,875
5089,101.78,774
5090,101.8,854
5091,101.82000000000001,1035
5092,101.84,1206
5093,101.86,1334
5094,101.88,1365
5095,101.9,1313
5096,101.92,1201
5097,101.94,1094
5098,101.96000000000001,1019
5099,101.98,997
5100,102.0,1029
5101,102.02,1217
5102,102.04,1651
5103,102.06,2316
5104,102.08,3181
5105,102.10000000000001,4095
5106,102.12,4095
5107,102.14,4095
5108,102.16,3142
5109,102.18,2422
5110,102.2,1805
5111,102.22,1247
5112,102.24000000000001,848
5113,102.26,703
5114,102.28,775
5115,102.3,987
5116,102.32000000000001,1207
5117,102.34,1355
5118,102.36,1408
5119,102.38,1392
5120,102.4,1320
5121,102.42,1195
5122,102.44,1061
5123,102.46000000000001,977
5124,102.48,1041
5125,102.5,1289
5126,102.52,1753
5127,102.54,2375
5128,102.56,3147
5129,102.58,4095
5130,102.60000000000001,4095
5131,102.62,3979
5132,102.64,3036
5133,102.66,2337
5134,102.68,1717
5135,102.7,1199
5136,102.72,839
5137,102.74000000000001,716
5138,102.76,806
5139,102.78,1010
5140,102.8,1232
5141,102.82000000000001,1398
5142,102.84,1485
5143,102.86,1488
5144,102.88,1408
5145,102.9,1300
5146,102.92,1202
5147,102.94,1136
5148,102.96000000000001,1135
5149,102.98,1261
5150,103.0,1574
5151,103.02,2063
5152,103.04,2643
5153,103.06,3335
5154,103.08,3836
5155,103.10000000000001,3649
5156,103.12,2954
5157,103.14,2303
5158,103.16,1664
5159,103.18,1115
5160,103.2,727
5161,103.22,565
5162,103.24000000000001,631
5163,103.26,880
5164,103.28,1215
5165,103.3,1520
5166,103.32000000000001,1744
5167,103.34,1855
5168,103.36,1856
5169,103.38,1751
5170,103.4,1605
5171,103.42,1472
5172,103.44,1437
5173,103.46000000000001,1579
5174,103.48,1954
5175,103.5,2513
5176,103.52,3334
5177,103.54,4095
5178,103.56,4095
5179,103.58,4095
5180,103.60000000000001,3367
5181,103.62,2571
5182,103.64,1986
5183,103.66,1565
5184,103.68,1347
5185,103.7,1316
5186,103.72,1391
5187,103.74000000000001,1525
5188,103.76,1681
5189,103.78,1760
5190,103.8,1714
5191,103.82000000000001,1581
5192,103.84,1413
5193,103.86,1287
5194,103.88,1200
5195,103.9,1184
5196,103.92,1328
5197,103.94,1758
5198,103.96000000000001,2429
5199,103.98,3395
5200,104.0,4095
5201,104.02,4095
5202,104.04,4095
5203,104.06,4095
5204,104.08,4095
5205,104.10000000000001,3281
5206,104.12,2559
5207,104.14,2183
5208,104.16,1931
5209,104.18,1823
5210,104.2,1836
5211,104.22,1952
5212,104.24000000000001,2090
5213,104.26,2096
5214,104.28,1909
5215,104.3,1647
5216,104.32000000000001,1451
5217,104.34,1395
5218,104.36,1572
5219,104.38,2003
5220,104.4,2725
5221,104.42,4095
5222,104.44,4095
5223,104.46000000000001,4095
5224,104.48,4095
5225,104.5,4095
5226,104.52,4095
5227,104.54,4095
5228,104.56,4095
5229,104.58,4095
5230,104.60000000000001,4095
5231,104.62,4095
5232,104.64,4095
5233,104.66,4095
5234,104.68,4095
5235,104.7,4030
5236,104.72,3245
5237,104.74000000000001,2810
5238,104.76,2546
5239,104.78,2330
5240,104.8,2096
5241,104.82000000000001,1862
5242,104.84,1718
5243,104.86,1782
5244,104.88,2064
5245,104.9,2461
5246,104.92,2864
5247,104.94,3169
5248,104.96000000000001,3117
5249,104.98,2766
5250,105.0,2302
5251,105.02,1775
5252,105.04,1265
5253,105.06,912
5254,105.08,741
5255,105.10000000000001,726
5256,105.12,834
5257,105.14,976
5258,105.16,1106
5259,105.18,1197
5260,105.2,1270
5261,105.22,1360
5262,105.24000000000001,1405
5263,105.26,1401
5264,105.28,1363
5265,105.3,1366
5266,105.32000000000001,1545
5267,105.34,1931
5268,105.36,2479
5269,105.38,3231
5270,105.4,4048
5271,105.42,3945
5272,105.44,2946
5273,105.46000000000001,2011
5274,105.48,1008
5275,105.5,87
5276,105.52,0
5277,105.54,0
5278,105.56,0
5279,105.58,0
5280,105.60000000000001,0
5281,105.62,0
5282,105.64,0
5283,105.66,0
5284,105.68,0
5285,105.7,0
5286,105.72,0
5287,105.74000000000001,288
5288,105.76,880
5289,105.78,1395
5290,105.8,1901
5291,105.82000000000001,2491
5292,105.84,3376
5293,105.86,4095
5294,105.88,4095
5295,105.9,4095
5296,105.92,4095
5297,105.94,4095
5298,105.96000000000001,3007
5299,105.98,2268
5300,106.0,1744
5301,106.02,1415
5302,106.04,1280
5303,106.06,1301
5304,106.08,1435
5305,106.10000000000001,1567
5306,106.12,1616
5307,106.14,1603
5308,106.16,1561
5309,106.18,1495
5310,106.2,1392
5311,106.22,1264
5312,106.24000000000001,1163
5313,106.26,1179
5314,106.28,1399
5315,106.3,1822
5316,106.32000000000001,2322
5317,106.34,2799
5318,106.36,3151
5319,106.38,3125
5320,106.4,2722
5321,106.42,2203
5322,106.44,1623
5323,106.46000000000001,1118
5324,106.48,783
5325,106.5,663
5326,106.52,733
5327,106.54,930
5328,106.56,1168
5329,106.58,1390
5330,106.60000000000001,1552
5331,106.62,1634
5332,106.64,1655
5333,106.66,1620
5334,106.68,1521
5335,106.7,1405
5336,106.72,1301
5337,106.74000000000001,1296
5338,106.76,1448
5339,106.78,1792
5340,106.8,2289
5341,106.82000000000001,2864
5342,106.84,3601
5343,106.86,4095
5344,106.88,4002
5345,106.9,3359
5346,106.92,2672
5347,106.94,2127
5348,106.96000000000001,1661
5349,106.98,1324
5350,107.0,1140
5351,107.02,1095
5352,107.04,1161
5353,107.06,1303
5354,107.08,1455
5355,107.10000000000001,1545
5356,107.12,1511
5357,107.14,1399
5358,107.16,1287
5359,107.18,1201
5360,107.2,1202
5361,107.22,1263
5362,107.24000000000001,1345
5363,107.26,1475
5364,107.28,1702
5365,107.3,2055
5366,107.32000000000001,2495
5367,107.34,3017
5368,107.36,3554
5369,107.38,3618
5370,107.4,3136
5371,107.42,2573
5372,107.44,2021
5373,107.46000000000001,1489
5374,107.48,1039
5375,107.5,742
5376,107.52,645
5377,107.54,704
5378,107.56,861
5379,107.58,1053
5380,107.60000000000001,1246
5381,107.62,1401
5382,107.64,1501
5383,107.66,1521
5384,107.68,1483
5385,107.7,1424
5386,107.72,1385
5387,107.74000000000001,1392
5388,107.76,1456
5389,107.78,1637
5390,107.8,1963
5391,107.82000000000001,2458
5392,107.84,3137
5393,107.86,4003
5394,107.88,4095
5395,107.9,4043
5396,107.92,3261
5397,107.94,2559
5398,107.96000000000001,1959
5399,107.98,1400
5400,108.0,1007
5401,108.02,842
5402,108.04,862
5403,108.06,987
5404,108.08,1155
5405,108.10000000000001,1306
5406,108.12,1408
5407,108.14,1421
5408,108.16,1333
5409,108.18,1207
5410,108.2,1094
5411,108.22,993
5412,108.24000000000001,901
5413,108.26,837
5414,108.28,827
5415,108.3,976
5416,108.32000000000001,1370
5417,108.34,1968
5418,108.36,2620
5419,108.38,3231
5420,108.4,3507
5421,108.42,3197
5422,108.44,2694
5423,108.46000000000001,2224
5424,108.48,1800
5425,108.5,1440
5426,108.52,1200
5427,108.54,1103
5428,108.56,1199
5429,108.58,1483
5430,108.60000000000001,1915
5431,108.62,2400
5432,108.64,2789
5433,108.66,2939
5434,108.68,2747
5435,108.7,2352
5436,108.72,1871
5437,108.74000000000001,1353
5438,108.76,786
5439,108.78,261
5440,108.8,0
5441,108.82000000000001,0
5442,108.84,0
5443,108.86,247
5444,108.88,746
5445,108.9,1123
5446,108.92,1232
5447,108.94,1107
5448,108.96000000000001,806
5449,108.98,432
5450,109.0,135
5451,109.02,14
5452,109.04,57
5453,109.06,240
5454,109.08,520
5455,109.10000000000001,829
5456,109.12,1093
5457,109.14,1237
5458,109.16,1241
5459,109.18,1138
5460,109.2,991
5461,109.22,838
5462,109.24000000000001,713
5463,109.26,645
5464,109.28,629
5465,109.3,666
5466,109.32000000000001,765
5467,109.34,959
5468,109.36,1315
5469,109.38,1827
5470,109.4,2416
5471,109.42,3003
5472,109.44,3514
5473,109.46000000000001,3536
5474,109.48,3069
5475,109.5,2518
5476,109.52,1994
5477,109.54,1535
5478,109.56,1190
5479,109.58,954
5480,109.60000000000001,832
5481,109.62,826
5482,109.64,912
5483,109.66,1040
5484,109.68,1163
5485,109.7,1235
5486,109.72,1260
5487,109.74000000000001,1227
5488,109.76,1161
5489,109.78,1090
5490,109.8,1064
5491,109.82000000000001,1067
5492,109.84,1085
5493,109.86,1132
5494,109.88,1274
5495,109.9,1581
5496,109.92,1981
5497,109.94,2326
5498,109.96000000000001,2493
5499,109.98,2437
5500,110.0,2204
5501,110.02,1890
5502,110.04,1551
5503,110.06,1221
5504,110.08,962
5505,110.10000000000001,821
5506,110.12,832
5507,110.14,967
5508,110.16,1155
5509,110.18,1329
5510,110.2,1410
5511,110.22,1433
5512,110.24000000000001,1411
5513,110.26,1383
5514,110.28,1360
5515,110.3,1329
5516,110.32000000000001,1285
5517,110.34,1237
5518,110.36,1206
5519,110.38,1277
5520,110.4,1523
5521,110.42,1919
5522,110.44,2382
5523,110.46000000000001,2798
5524,110.48,2979
5525,110.5,2822
5526,110.52,2495
5527,110.54,2123
5528,110.56,1734
5529,110.58,1390
5530,110.60000000000001,1152
5531,110.62,1040
5532,110.64,1040
5533,110.66,1125
5534,110.68,1250
5535,110.7,1344
5536,110.72,1366
5537,110.74000000000001,1333
5538,110.76,1265
5539,110.78,1199
5540,110.8,1168
5541,110.82000000000001,1138
5542,110.84,1103
5543,110.86,1087
5544,110.88,1159
5545,110.9,1392
5546,110.92,1813
5547,110.94,2320
5548,110.96000000000001,2772
5549,110.98,3088
5550,111.0,3062
5551,111.02,2783
5552,111.04,2432
5553,111.06,2064
5554,111.08,1728
5555,111.10000000000001,1449
5556,111.12,1283
5557,111.14,1254
5558,111.16,1318
5559,111.18,1412
5560,111.2,1479
5561,111.22,1506
5562,111.24000000000001,1456
5563,111.26,1361
5564,111.28,1286
5565,111.3,1232
5566,111.32000000000001,1217
5567,111.34,1250
5568,111.36,1311
5569,111.38,1397
5570,111.4,1581
5571,111.42,1920
5572,111.44,2419
5573,111.46000000000001,2983
5574,111.48,3516
5575,111.5,3600
5576,111.52,3223
5577,111.54,2740
5578,111.56,2325
5579,111.58,1950
5580,111.60000000000001,1661
5581,111.62,1502
5582,111.64,1483
5583,111.66,1557
5584,111.68,1615
5585,111.7,1658
5586,111.72,1628
5587,111.74000000000001,1577
5588,111.76,1487
5589,111.78,1390
5590,111.8,1313
5591,111.82000000000001,1289
5592,111.84,1317
5593,111.86,1367
5594,111.88,1456
5595,111.9,1651
5596,111.92,1988
5597,111.94,2422
5598,111.96000000000001,2896
5599,111.98,3341
5600,112.0,3511
5601,112.02,3313
5602,112.04,2858
5603,112.06,2374
5604,112.08,1904
5605,112.10000000000001,1535
5606,112.12,1343
5607,112.14,1310
5608,112.16,1350
5609,112.18,1413
5610,112.2,1476
5611,112.22,1501
5612,112.24000000000001,1475
5613,112.26,1425
5614,112.28,1378
5615,112.3,1328
5616,112.32000000000001,1322
5617,112.34,1338
5618,112.36,1397
5619,112.38,1555
5620,112.4,1835
5621,112.42,2219
5622,112.44,2605
5623,112.46000000000001,2905
5624,112.48,2962
5625,112.5,2727
5626,112.52,2355
5627,112.54,1929
5628,112.56,1493
5629,112.58,1150
5630,112.60000000000001,957
5631,112.62,966
5632,112.64,1114
5633,112.66,1303
5634,112.68,1474
5635,112.7,1586
5636,112.72,1629
5637,112.74000000000001,1603
5638,112.76,1545
5639,112.78,1459
5640,112.8,1375
5641,112.82000000000001,1328
5642,112.84,1347
5643,112.86,1535
5644,112.88,1901
5645,112.9,2413
5646,112.92,3057
5647,112.94,3892
5648,112.96000000000001,4095
5649,112.98,4095
5650,113.0,3562
5651,113.02,2875
5652,113.04,2373
5653,113.06,1968
5654,113.08,1683
5655,113.10000000000001,1559
5656,113.12,1565
5657,113.14,1648
5658,113.16,1730
5659,113.18,1763
5660,113.2,1743
5661,113.22,1693
5662,113.24000000000001,1619
5663,113.26,1534
5664,113.28,1457
5665,113.3,1418
5666,113.32000000000001,1439
5667,113.34,1597
5668,113.36,1920
5669,113.38,2378
5670,113.4,2925
5671,113.42,3471
5672,113.44,3708
5673,113.46000000000001,3415
5674,113.48,2886
5675,113.5,2407
5676,113.52,1966
5677,113.54,1599
5678,113.56,1359
5679,113.58,1275
5680,113.60000000000001,1313
5681,113.62,1415
5682,113.64,1507
5683,113.66,1547
5684,113.68,1521
5685,113.7,1447
5686,113.72,1357
5687,113.74000000000001,1267
5688,113.76,1172
5689,113.78,1093
5690,113.8,1105
5691,113.82000000000001,1279
5692,113.84,1636
5693,113.86,2112
5694,113.88,2581
5695,113.9,2960
5696,113.92,3134
5697,113.94,2973
5698,113.96000000000001,2641
5699,113.98,2255
5700,114.0,1847
5701,114.02,1491
5702,114.04,1251
5703,114.06,1165
5704,114.08,1232
5705,114.10000000000001,1413
5706,114.12,1586
5707,114.14,1635
5708,114.16,1526
5709,114.18,1317
5710,114.2,1102
5711,114.22,974
5712,114.24000000000001,978
5713,114.26,1074
5714,114.28,1277
5715,114.3,1635
5716,114.32000000000001,2155
5717,114.34,2779
5718,114.36,3729
5719,114.38,4095
5720,114.4,4095
5721,114.42,4095
5722,114.44,3613
5723,114.46000000000001,2726
5724,114.48,2123
5725,114.5,1640
5726,114.52,1345
5727,114.54,1263
5728,114.56,1328
5729,114.58,1459
5730,114.60000000000001,1583
5731,114.62,1646
5732,114.64,1659
5733,114.66,1635
5734,114.68,1616
5735,114.7,1600
5736,114.72,1585
5737,114.74000000000001,1600
5738,114.76,1708
5739,114.78,1978
5740,114.8,2385
5741,114.82000000000001,2864
5742,114.84,3331
5743,114.86,3449
5744,114.88,3178
5745,114.9,2749
5746,114.92,2329
5747,114.94,1906
5748,114.96000000000001,1526
5749,114.98,1255
5750,115.0,1133
5751,115.02,1163
5752,115.04,1280
5753,115.06,1393
5754,115.08,1479
5755,115.10000000000001,1509
5756,115.12,1496
5757,115.14,1458
5758,115.16,1410
5759,115.18,1376
5760,115.2,1395
5761,115.22,1533
5762,115.24000000000001,1851
5763,115.26,2309
5764,115.28,2832
5765,115.3,3453
5766,115.32000000000001,3834
5767,115.34,3571
5768,115.36,2942
5769,115.38,2345
5770,115.4,1789
5771,115.42,1302
5772,115.44,960
5773,115.46000000000001,798
5774,115.48,816
5775,115.5,976
5776,115.52,1203
5777,115.54,1409
5778,115.56,1515
5779,115.58,1547
5780,115.60000000000001,1504
5781,115.62,1435
5782,115.64,1344
5783,115.66,1289
5784,115.68,1353
5785,115.7,1622
5786,115.72,2115
5787,115.74000000000001,2736
5788,115.76,3574
5789,115.78,4095
5790,115.8,4095
5791,115.82000000000001,3655
5792,115.84,2831
5793,115.86,2241
5794,115.88,1712
5795,115.9,1325
5796,115.92,1143
5797,115.94,1138
5798,115.96000000000001,1255
5799,115.98,1423
5800,116.0,1552
5801,116.02,1585
5802,116.04,1562
5803,116.06,1535
5804,116.08,1559
5805,116.10000000000001,1635
5806,116.12,1743
5807,116.14,1937
5808,116.16,2317
5809,116.18,2928
5810,116.2,4095
5811,116.22,4095
5812,116.24000000000001,4095
5813,116.26,4095
5814,116.28,4095
5815,116.3,4095
5816,116.32000000000001,2720
5817,116.34,1831
5818,116.36,1110
5819,116.38,662
5820,116.4,507
5821,116.42,592
5822,116.44,845
5823,116.46000000000001,1155
5824,116.48,1391
5825,116.5,1508
5826,116.52,1550
5827,116.54,1545
5828,116.56,1520
5829,116.58,1520
5830,116.60000000000001,1605
5831,116.62,1817
5832,116.64,2251
5833,116.66,2973
5834,116.68,4095
5835,116.7,4095
5836,116.72,4095
5837,116.74000000000001,4095
5838,116.76,3407
5839,116.78,2257
5840,116.8,1367
5841,116.82000000000001,666
5842,116.84,240
5843,116.86,103
5844,116.88,203
5845,116.9,442
5846,116.92,710
5847,116.94,912
5848,116.96000000000001,973
5849,116.98,871
5850,117.0,656
5851,117.02,496
5852,117.04,487
5853,117.06,602
5854,117.08,866
5855,117.10000000000001,1327
5856,117.12,1927
5857,117.14,2535
5858,117.16,3094
5859,117.18,3280
5860,117.2,2949
5861,117.22,2544
5862,117.24000000000001,2147
5863,117.26,1705
5864,117.28,1271
5865,117.3,928
5866,117.32000000000001,755
5867,117.34,803
5868,117.36,985
5869,117.38,1200
5870,117.4,1335
5871,117.42,1354
5872,117.44,1283
5873,117.46000000000001,1181
5874,117.48,1104
5875,117.5,1091
5876,117.52,1164
5877,117.54,1351
5878,117.56,1729
5879,117.58,2282
5880,117.60000000000001,2973
5881,117.62,4025
5882,117.64,4095
5883,117.66,4095
5884,117.68,3675
5885,117.7,2894
5886,117.72,2372
5887,117.74000000000001,1958
5888,117.76,1610
5889,117.78,1327
5890,117.8,1134
5891,117.82000000000001,1075
5892,117.84,1170
5893,117.86,1321
5894,117.88,1431
5895,117.9,1451
5896,117.92,1375
5897,117.94,1257
5898,117.96000000000001,1136
5899,117.98,1035
5900,118.0,978
5901,118.02,1035
5902,118.04,1331
5903,118.06,2272
5904,118.08,3746
5905,118.10000000000001,4095
5906,118.12,4095
5907,118.14,4095
5908,118.16,4095
5909,118.18,4095
5910,118.2,4095
5911,118.22,2726
5912,118.24000000000001,1922
5913,118.26,1361
5914,118.28,1078
5915,118.3,973
5916,118.32000000000001,912
5917,118.34,878
5918,118.36,868
5919,118.38,923
5920,118.4,1015
5921,118.42,1107
5922,118.44,1136
5923,118.46000000000001,1077
5924,118.48,975
5925,118.5,923
5926,118.52,1009
5927,118.54,1280
5928,118.56,1669
5929,118.58,2075
5930,118.60000000000001,2391
5931,118.62,2518
5932,118.64,2389
5933,118.66,2064
5934,118.68,1637
5935,118.7,1220
5936,118.72,863
5937,118.74000000000001,648
5938,118.76,562
5939,118.78,602
5940,118.8,691
5941,118.82000000000001,781
5942,118.84,816
5943,118.86,793
5944,118.88,721
5945,118.9,681
5946,118.92,670
5947,118.94,677
5948,118.96000000000001,681
5949,118.98,711
5950,119.0,864
5951,119.02,1255
5952,119.04,1801
5953,119.06,2470
5954,119.08,3215
5955,119.10000000000001,3712
5956,119.12,3739
5957,119.14,3483
5958,119.16,2958
5959,119.18,2372
5960,119.2,1940
5961,119.22,1714
5962,119.24000000000001,1501
5963,119.26,1307
5964,119.28,1315
5965,119.3,1515
5966,119.32000000000001,1494
5967,119.34,1329
5968,119.36,1183
5969,119.38,1095
5970,119.4,1047
5971,119.42,1071
5972,119.44,1082
5973,119.46000000000001,1087
5974,119.48,1152
5975,119.5,1421
5976,119.52,1905
5977,119.54,2607
5978,119.56,3702
5979,119.58,4095
5980,119.60000000000001,4095
5981,119.62,4095
5982,119.64,3899
5983,119.66,2784
5984,119.68,2073
5985,119.7,1553
5986,119.72,1391
5987,119.74000000000001,1584
5988,119.76,1978
5989,119.78,2270
5990,119.8,2430
5991,119.82000000000001,2337
5992,119.84,1994
5993,119.86,1582
5994,119.88,1289
5995,119.9,1126
5996,119.92,983
5997,119.94,823
5998,119.96000000000001,665
5999,119.98,637
6000,120.0,785
6001,120.02,1165
6002,120.04,1657
6003,120.06,2112
6004,120.08,2383
6005,120.10000000000001,2447
6006,120.12,2292
6007,120.14,1939
6008,120.16,1474
6009,120.18,1056
6010,120.2,745
6011,120.22,640
6012,120.24000000000001,687
6013,120.26,807
6014,120.28,1063
6015,120.3,1325
6016,120.32000000000001,1552
6017,120.34,1690
6018,120.36,1707
6019,120.38,1676
6020,120.4,1728
6021,120.42,1776
6022,120.44,1680
6023,120.46000000000001,1466
6024,120.48,1271
6025,120.5,1259
6026,120.52,1507
6027,120.54,2003
6028,120.56,2619
6029,120.58,3445
6030,120.60000000000001,4095
6031,120.62,4095
6032,120.64,4095
6033,120.66,3413
6034,120.68,2862
6035,120.7,2590
6036,120.72,2465
6037,120.74000000000001,2434
6038,120.76,2630
6039,120.78,2941
6040,120.8,3216
6041,120.82000000000001,3326
6042,120.84,3175
6043,120.86,2727
6044,120.88,2253
6045,120.9,1787
6046,120.92,1424
6047,120.94,1265
6048,120.96000000000001,1357
6049,120.98,1703
6050,121.0,2359
6051,121.02,3779
6052,121.04,4095
6053,121.06,4095
6054,121.08,4095
6055,121.10000000000001,4095
6056,121.12,4095
6057,121.14,4095
6058,121.16,4095
6059,121.18,4095
6060,121.2,4095
6061,121.22,4095
6062,121.24000000000001,4095
6063,121.26,4095
6064,121.28,4095
6065,121.3,4095
6066,121.32000000000001,4095
6067,121.34,4095
6068,121.36,4095
6069,121.38,3147
6070,121.4,2463
6071,121.42,2172
6072,121.44,2194
6073,121.46000000000001,2507
6074,121.48,3180
6075,121.5,4095
6076,121.52,4095
6077,121.54,4095
6078,121.56,4095
6079,121.58,4095
6080,121.60000000000001,4095
6081,121.62,4095
6082,121.64,4095
6083,121.66,4095
6084,121.68,4095
6085,121.7,4095
6086,121.72,4095
6087,121.74000000000001,4095
6088,121.76,3066
6089,121.78,2210
6090,121.8,1328
6091,121.82000000000001,324
6092,121.84,0
6093,121.86,0
6094,121.88,0
6095,121.9,0
6096,121.92,0
6097,121.94,0
6098,121.96000000000001,0
6099,121.98,0
6100,122.0,0
6101,122.02,0
6102,122.04,320
6103,122.06,1637
6104,122.08,2764
6105,122.10000000000001,3983
6106,122.12,4095
6107,122.14,3301
6108,122.16,2449
6109,122.18,1861
6110,122.2,1586
6111,122.22,1725
6112,122.24000000000001,2126
6113,122.26,2609
6114,122.28,3201
6115,122.3,3839
6116,122.32000000000001,4095
6117,122.34,4095
6118,122.36,3794
6119,122.38,3343
6120,122.4,2961
6121,122.42,2914
6122,122.44,3406
6123,122.46000000000001,4095
6124,122.48,4095
6125,122.5,4095
6126,122.52,4095
6127,122.54,4095
6128,122.56,4095
6129,122.58,4095
6130,122.60000000000001,4095
6131,122.62,3094
6132,122.64,1903
6133,122.66,1021
6134,122.68,419
6135,122.7,97
6136,122.72,59
6137,122.74000000000001,199
6138,122.76,439
6139,122.78,720
6140,122.8,933
6141,122.82000000000001,1047
6142,122.84,1123
6143,122.86,1220
6144,122.88,1449
6145,122.9,1882
6146,122.92,2493
6147,122.94,3393
6148,122.96000000000001,4095
6149,122.98,4095
6150,123.0,4095
6151,123.02,4095
6152,123.04,3408
6153,123.06,2384
6154,123.08,1668
6155,123.10000000000001,1186
6156,123.12,989
6157,123.14,1008
6158,123.16,1168
6159,123.18,1407
6160,123.2,1651
6161,123.22,1872
6162,123.24000000000001,2080
6163,123.26,2271
6164,123.28,2403
6165,123.3,2465
6166,123.32000000000001,2451
6167,123.34,2422
6168,123.36,2543
6169,123.38000000000001,2962
6170,123.4,3919
6171,123.42,4095
6172,123.44,4095
6173,123.46000000000001,4095
6174,123.48,4095
6175,123.5,4095
6176,123.52,4095
6177,123.54,3216
6178,123.56,2272
6179,123.58,1595
6180,123.60000000000001,1151
6181,123.62,989
6182,123.64,1007
6183,123.66,1089
6184,123.68,1205
6185,123.7,1387
6186,123.72,1646
6187,123.74000000000001,1929
6188,123.76,2155
6189,123.78,2311
6190,123.8,2461
6191,123.82000000000001,2651
6192,123.84,2975
6193,123.86,3660
6194,123.88000000000001,4095
6195,123.9,4095
6196,123.92,4095
6197,123.94,4095
6198,123.96000000000001,4095
6199,123.98,4095
6200,124.0,3638
6201,124.02,2811
6202,124.04,2359
6203,124.06,2027
6204,124.08,1797
6205,124.10000000000001,1664
6206,124.12,1529
6207,124.14,1269
6208,124.16,820
6209,124.18,283
6210,124.2,0
6211,124.22,0
6212,124.24000000000001,0
6213,124.26,0
6214,124.28,0
6215,124.3,0
6216,124.32000000000001,0
6217,124.34,0
6218,124.36,0
6219,124.38000000000001,0
6220,124.4,0
6221,124.42,0
6222,124.44,0
6223,124.46000000000001,0
6224,124.48,0
6225,124.5,0
6226,124.52,0
6227,124.54,0
6228,124.56,0
6229,124.58,0
6230,124.60000000000001,0
6231,124.62,0
6232,124.64,0
6233,124.66,0
6234,124.68,0
6235,124.7,0
6236,124.72,0
6237,124.74000000000001,0
6238,124.76,0
6239,124.78,0
6240,124.8,0
6241,124.82000000000001,0
6242,124.84,0
6243,124.86,0
6244,124.88000000000001,0
6245,124.9,0
6246,124.92,0
6247,124.94,0
6248,124.96000000000001,0
6249,124.98,0
6250,125.0,0
6251,125.02,0
6252,125.04,0
6253,125.06,0
6254,125.08,0
6255,125.10000000000001,0
6256,125.12,0
6257,125.14,0
6258,125.16,0
6259,125.18,0
6260,125.2,0
6261,125.22,16
6262,125.24000000000001,1495
6263,125.26,2855
6264,125.28,4095
6265,125.3,4095
6266,125.32000000000001,4095
6267,125.34,4095
6268,125.36,4095
6269,125.38000000000001,4095
6270,125.4,4095
6271,125.42,4095
6272,125.44,4095
6273,125.46000000000001,4095
6274,125.48,4095
6275,125.5,4095
6276,125.52,4095
6277,125.54,4095
6278,125.56,4095
6279,125.58,4095
6280,125.60000000000001,4095
6281,125.62,3937
6282,125.64,2878
6283,125.66,2242
6284,125.68,1775
6285,125.7,1630
6286,125.72,1904
6287,125.74000000000001,2483
6288,125.76,3361
6289,125.78,4095
6290,125.8,4095
6291,125.82000000000001,4095
6292,125.84,4095
6293,125.86,4095
6294,125.88000000000001,3642
6295,125.9,2992
6296,125.92,2546
6297,125.94,2238
6298,125.96000000000001,2078
6299,125.98,2080
6300,126.0,2210
6301,126.02,2436
6302,126.04,2675
6303,126.06,2807
6304,126.08,2725
6305,126.10000000000001,2495
6306,126.12,2234
6307,126.14,1986
6308,126.16,1840
6309,126.18,1914
6310,126.2,2263
6311,126.22,2827
6312,126.24000000000001,3657
6313,126.26,4095
6314,126.28,4095
6315,126.3,4025
6316,126.32000000000001,3623
6317,126.34,3173
6318,126.36,2816
6319,126.38000000000001,2638
6320,126.4,2576
6321,126.42,2640
6322,126.44,2986
6323,126.46000000000001,3394
6324,126.48,3459
6325,126.5,3025
6326,126.52,2479
6327,126.54,1974
6328,126.56,1523
6329,126.58,1187
6330,126.60000000000001,951
6331,126.62,875
6332,126.64,1023
6333,126.66,1392
6334,126.68,1883
6335,126.7,2358
6336,126.72,2703
6337,126.74000000000001,2864
6338,126.76,2921
6339,126.78,2926
6340,126.8,2822
6341,126.82000000000001,2672
6342,126.84,2554
6343,126.86,2493
6344,126.88000000000001,2489
6345,126.9,2535
6346,126.92,2610
6347,126.94,2653
6348,126.96000000000001,2641
6349,126.98,2543
6350,127.0,2352
6351,127.02,2096
6352,127.04,1821
6353,127.06,1634
6354,127.08,1616
6355,127.10000000000001,1871
6356,127.12,2371
6357,127.14,3078
6358,127.16,3969
6359,127.18,4095
6360,127.2,3950
6361,127.22,3168
6362,127.24000000000001,2575
6363,127.26,2158
6364,127.28,1872
6365,127.3,1712
6366,127.32000000000001,1682
6367,127.34,1753
6368,127.36,1853
6369,127.38000000000001,1917
6370,127.4,1907
6371,127.42,1801
6372,127.44,1569
6373,127.46000000000001,1222
6374,127.48,829
6375,127.5,443
6376,127.52,122
6377,127.54,25
6378,127.56,316
6379,127.58,969
6380,127.60000000000001,1747
6381,127.62,2335
6382,127.64,2573
6383,127.66,2515
6384,127.68,2279
6385,127.7,1936
6386,127.72,1546
6387,127.74000000000001,1207
6388,127.76,1050
6389,127.78,1104
6390,127.8,1325
6391,127.82000000000001,1639
6392,127.84,1952
6393,127.86,2202
6394,127.88000000000001,2334
6395,127.9,2318
6396,127.92,1936
6397,127.94,1588
6398,127.96000000000001,1442
6399,127.98,1500
6400,128.0,1765
6401,128.02,2297
6402,128.04,3177
6403,128.06,4095
6404,128.08,4095
6405,128.1,4095
6406,128.12,4095
6407,128.14000000000001,4095
6408,128.16,4095
6409,128.18,4095
6410,128.2,2839
6411,128.22,2256
6412,128.24,1946
6413,128.26,1873
6414,128.28,1951
6415,128.3,2026
6416,128.32,2021
6417,128.34,1968
6418,128.36,1894
6419,128.38,1817
6420,128.4,1743
6421,128.42000000000002,1696
6422,128.44,1710
6423,128.46,1846
6424,128.48,2109
6425,128.5,2443
6426,128.52,2806
6427,128.54,3149
6428,128.56,3303
6429,128.58,3166
6430,128.6,2871
6431,128.62,2591
6432,128.64000000000001,2370
6433,128.66,2183
6434,128.68,2057
6435,128.7,2007
6436,128.72,1939
6437,128.74,1806
6438,128.76,1620
6439,128.78,1418
6440,128.8,1223
6441,128.82,1059
6442,128.84,931
6443,128.86,839
6444,128.88,777
6445,128.9,797
6446,128.92000000000002,949
6447,128.94,1325
6448,128.96,1882
6449,128.98,2457
6450,129.0,2941
6451,129.02,3216
6452,129.04,3078
6453,129.06,2635
6454,129.08,2099
6455,129.1,1535
6456,129.12,1057
6457,129.14000000000001,768
6458,129.16,688
6459,129.18,767
6460,129.2,942
6461,129.22,1180
6462,129.24,1387
6463,129.26,1546
6464,129.28,1637
6465,129.3,1697
6466,129.32,1770
6467,129.34,1841
6468,129.36,1947
6469,129.38,2110
6470,129.4,2354
6471,129.42000000000002,2839
6472,129.44,4064
6473,129.46,4095
6474,129.48,4095
6475,129.5,4095
6476,129.52,4095
6477,129.54,4095
6478,129.56,4095
6479,129.58,3059
6480,129.6,2000
6481,129.62,1237
6482,129.64000000000001,731
6483,129.66,461
6484,129.68,384
6485,129.7,490
6486,129.72,737
6487,129.74,1067
6488,129.76,1371
6489,129.78,1634
6490,129.8,1856
6491,129.82,2009
6492,129.84,2155
6493,129.86,2343
6494,129.88,2641
6495,129.9,3118
6496,129.92000000000002,3907
6497,129.94,4095
6498,129.96,4095
6499,129.98,4095
6500,130.0,4095
6501,130.02,4095
6502,130.04,3607
6503,130.06,2785
6504,130.08,2339
6505,130.1,2023
6506,130.12,1849
6507,130.14000000000001,1821
6508,130.16,1889
6509,130.18,2033
6510,130.2,2176
6511,130.22,2126
6512,130.24,1771
6513,130.26,1181
6514,130.28,482
6515,130.3,0
6516,130.32,0
6517,130.34,0
6518,130.36,230
6519,130.38,1139
6520,130.4,2213
6521,130.42000000000002,3420
6522,130.44,4095
6523,130.46,4095
6524,130.48,3280
6525,130.5,2305
6526,130.52,1576
6527,130.54,1050
6528,130.56,758
6529,130.58,682
6530,130.6,736
6531,130.62,768
6532,130.64000000000001,601
6533,130.66,243
6534,130.68,0
6535,130.7,0
6536,130.72,0
6537,130.74,0
6538,130.76,0
6539,130.78,0
6540,130.8,0
6541,130.82,0
6542,130.84,0
6543,130.86,0
6544,130.88,0
6545,130.9,0
6546,130.92000000000002,0
6547,130.94,0
6548,130.96,0
6549,130.98,0
6550,131.0,0
6551,131.02,0
6552,131.04,0
